PLAYER_ID,PLAYER_NAME,TEAM_ID,SEZON_YIL,TEAM_ABBREVIATION,AGE,GP,MIN,FGM,FGA,FG3M,FG3A,FTM,FTA,OREB,DREB,REB,AST,TOV,STL,BLK,PF,PTS,PLUS_MINUS,USG_PCT,TS_PCT,EFG_PCT,AST_PCT,REB_PCT,PIE,PACE,OFF_RATING,DEF_RATING,HEDEF_PTS,PTS_36,FGA_36,FTA_36,FG3A_ORAN,PTS_L1,PTS_L2,MIN_L1,PTS_36_L1,GP_L1,PTS_AGIRLIKLI,PTS_TREND,MIN_TREND,AGE_KARE,GECMIS_SEZON,TAKIM_DEGISTI
3,Grant Long,1610612763,2000,VAN,35.0,66,22.9,2.1,4.8,0.1,0.2,1.7,2.4,1.2,3.0,4.2,1.3,0.9,1.1,0.2,2.4,6.0,-3.3,0.137,0.51,0.445,0.092,0.092,0.077,92.84,95.5,102.5,6.3,9.43231441048035,7.54585152838428,3.77292576419214,0.04166666666666667,,,,,,6.0,,,1225.0,0,
3,Grant Long,1610612763,2001,MEM,36.0,66,28.3,2.5,5.8,0.0,0.3,1.3,1.9,0.5,3.0,3.5,2.1,1.6,1.0,0.2,1.9,6.3,-5.8,0.132,0.475,0.43,0.117,0.062,0.059,93.64,93.3,103.5,1.8,8.014134275618375,7.378091872791519,2.4169611307420493,0.05172413793103448,6.0,,22.9,9.43231441048035,66.0,6.166666666666667,0.2999999999999998,5.400000000000002,1296.0,1,0.0
3,Grant Long,1610612738,2002,BOS,37.0,41,11.9,0.7,1.7,0.0,0.1,0.4,0.6,0.6,1.4,2.0,0.6,0.5,0.2,0.0,1.5,1.8,-1.4,0.094,0.449,0.386,0.089,0.085,0.037,92.77,89.6,94.0,,5.4453781512605035,5.142857142857142,1.8151260504201678,0.05882352941176471,6.3,6.0,28.3,8.014134275618375,66.0,4.3500000000000005,-4.5,-16.4,1369.0,2,1.0
15,Eric Piatkowski,1610612746,2000,LAC,30.0,81,26.5,3.6,8.3,1.5,3.7,2.0,2.2,0.7,2.3,3.0,1.2,0.9,0.6,0.2,1.5,10.6,-0.7,0.173,0.572,0.522,0.074,0.057,0.092,92.4,102.4,103.9,8.8,14.399999999999999,11.27547169811321,2.988679245283019,0.4457831325301205,,,,,,10.6,,,900.0,0,
15,Eric Piatkowski,1610612746,2001,LAC,31.0,71,24.2,2.9,6.6,1.6,3.4,1.4,1.6,0.6,2.0,2.6,1.6,0.9,0.6,0.2,1.5,8.8,-0.5,0.146,0.601,0.557,0.101,0.054,0.085,92.62,103.5,105.2,9.7,13.090909090909093,9.818181818181817,2.3801652892561984,0.5151515151515151,10.6,,26.5,14.399999999999999,81.0,9.600000000000001,-1.799999999999999,-2.3000000000000007,961.0,1,0.0
15,Eric Piatkowski,1610612746,2002,LAC,32.0,62,21.9,3.4,7.2,1.3,3.2,1.6,2.0,0.7,1.8,2.5,1.1,0.9,0.5,0.1,1.5,9.7,0.3,0.178,0.601,0.561,0.087,0.058,0.1,93.61,103.6,103.2,4.1,15.945205479452055,11.835616438356166,3.2876712328767126,0.4444444444444445,8.8,10.6,24.2,13.090909090909093,71.0,9.625,0.8999999999999986,-2.3000000000000007,1024.0,2,0.0
15,Eric Piatkowski,1610612745,2003,HOU,33.0,49,14.3,1.5,3.9,0.9,2.5,0.3,0.3,0.2,1.3,1.5,0.5,0.6,0.3,0.1,0.9,4.1,-0.3,0.15,0.507,0.49,0.069,0.052,0.068,88.78,92.7,94.4,4.8,10.32167832167832,9.818181818181817,0.7552447552447552,0.6410256410256411,9.7,8.8,21.9,15.945205479452055,62.0,7.141666666666667,-5.6,-7.599999999999998,1089.0,3,1.0
15,Eric Piatkowski,1610612741,2004,CHI,34.0,68,12.3,1.6,3.8,0.8,2.0,0.7,0.8,0.2,0.9,1.2,0.8,0.5,0.4,0.0,1.0,4.8,0.2,0.16,0.573,0.541,0.099,0.045,0.088,96.75,98.6,98.6,2.0,14.048780487804876,11.121951219512194,2.341463414634146,0.5263157894736842,4.1,9.7,14.3,10.32167832167832,49.0,5.791666666666667,0.7000000000000002,-2.0,1156.0,4,1.0
15,Eric Piatkowski,1610612741,2005,CHI,35.0,29,7.9,0.8,2.1,0.3,1.1,0.1,0.2,0.1,0.7,0.8,0.4,0.4,0.2,0.0,0.7,2.0,0.7,0.136,0.467,0.467,0.086,0.048,0.044,97.48,97.0,92.5,2.5,9.11392405063291,9.569620253164556,0.9113924050632911,0.5238095238095238,4.8,4.1,12.3,14.048780487804876,68.0,3.4583333333333335,-2.8,-4.4,1225.0,5,0.0
15,Eric Piatkowski,1610612756,2006,PHX,36.0,11,6.6,0.8,2.3,0.6,1.6,0.2,0.2,0.2,0.6,0.8,0.4,0.5,0.0,0.1,0.5,2.5,-0.3,0.2,0.522,0.5,0.085,0.061,0.044,93.96,102.8,107.1,2.4,13.636363636363637,12.545454545454545,1.090909090909091,0.6956521739130436,2.0,4.8,7.9,9.11392405063291,29.0,2.908333333333333,0.5,-1.3000000000000007,1296.0,6,1.0
15,Eric Piatkowski,1610612756,2007,PHX,37.0,16,7.0,0.8,2.1,0.7,1.6,0.3,0.3,0.1,0.7,0.8,0.6,0.4,0.0,0.1,0.7,2.4,-2.1,0.164,0.561,0.53,0.141,0.048,0.061,98.63,92.7,107.4,,12.342857142857143,10.799999999999999,1.542857142857143,0.7619047619047619,2.5,2.0,6.6,13.636363636363637,11.0,2.3333333333333335,-0.10000000000000009,0.40000000000000036,1369.0,7,0.0
21,Greg Anthony,1610612757,2000,POR,33.0,58,14.8,1.7,4.4,1.1,2.7,0.4,0.6,0.4,0.7,1.1,1.4,0.7,0.7,0.1,1.1,4.9,-0.1,0.166,0.527,0.512,0.162,0.039,0.074,90.98,100.8,101.2,7.9,11.91891891891892,10.702702702702704,1.4594594594594592,0.6136363636363636,,,,,,4.9,,,1089.0,0,
21,Greg Anthony,1610612749,2001,MIL,34.0,60,25.2,3.1,7.9,0.8,2.7,1.0,1.5,0.4,1.8,2.2,4.7,1.6,1.3,0.1,1.9,7.9,-4.5,0.182,0.46,0.436,0.31,0.044,0.089,92.92,95.9,104.7,,11.285714285714285,11.285714285714285,2.142857142857143,0.34177215189873417,4.9,,14.8,11.91891891891892,58.0,6.566666666666666,3.0,10.399999999999999,1156.0,1,1.0
26,Luc Longley,1610612752,2000,NYK,32.0,25,12.0,0.7,2.2,0.0,0.0,0.5,0.7,1.0,1.6,2.6,0.3,0.9,0.1,0.4,2.0,2.0,1.2,0.134,0.399,0.333,0.04,0.112,0.005,88.35,93.8,87.5,,6.0,6.6000000000000005,2.0999999999999996,0.0,,,,,,2.0,,,1024.0,0,
28,Doug West,1610612763,2000,VAN,34.0,15,11.5,0.7,2.5,0.0,0.1,0.4,0.5,0.3,0.7,1.0,0.9,0.3,0.2,0.3,1.4,1.9,-3.9,0.115,0.341,0.289,0.14,0.04,0.014,96.33,87.1,100.9,,5.947826086956521,7.826086956521739,1.5652173913043477,0.04,,,,,,1.9,,,1156.0,0,
29,Jim McIlvaine,1610612751,2000,NJN,28.0,18,10.8,0.6,1.6,0.0,0.0,0.4,0.7,0.4,1.5,1.9,0.2,0.5,0.4,0.8,1.9,1.6,-2.4,0.098,0.421,0.357,0.038,0.094,0.025,94.91,85.2,96.1,,5.333333333333333,5.333333333333333,2.333333333333333,0.0,,,,,,1.6,,,784.0,0,
42,Monty Williams,1610612753,2000,ORL,29.0,82,14.7,2.0,4.4,0.0,0.2,1.0,1.6,1.0,1.9,3.0,1.0,1.0,0.4,0.2,1.7,5.0,-2.2,0.185,0.485,0.446,0.122,0.098,0.081,94.63,90.2,98.1,7.1,12.244897959183673,10.775510204081634,3.918367346938776,0.045454545454545456,,,,,,5.0,,,841.0,0,
42,Monty Williams,1610612753,2001,ORL,30.0,68,18.9,2.9,5.3,0.0,0.1,1.3,2.0,1.2,2.3,3.5,1.4,1.3,0.7,0.3,2.0,7.1,-1.8,0.173,0.575,0.547,0.126,0.092,0.099,95.89,98.6,102.4,4.4,13.523809523809526,10.095238095238095,3.8095238095238098,0.01886792452830189,5.0,,14.7,12.244897959183673,82.0,6.166666666666667,2.0999999999999996,4.199999999999999,900.0,1,0.0
42,Monty Williams,1610612755,2002,PHI,31.0,21,13.2,1.6,3.8,0.0,0.1,1.1,1.5,0.6,1.6,2.1,1.2,0.8,0.6,0.2,1.6,4.4,2.4,0.172,0.489,0.425,0.143,0.083,0.073,97.99,106.7,97.3,,12.000000000000002,10.363636363636365,4.090909090909092,0.026315789473684213,7.1,5.0,18.9,13.523809523809526,68.0,5.45,-2.6999999999999993,-5.699999999999999,961.0,2,1.0
43,Chris Whitney,1610612764,2000,WAS,29.0,59,26.0,3.1,8.0,1.6,4.2,1.7,1.9,0.2,1.6,1.8,4.2,1.7,0.9,0.1,2.5,9.5,-4.3,0.177,0.537,0.486,0.273,0.036,0.085,94.42,98.6,106.6,10.2,13.153846153846153,11.076923076923077,2.6307692307692303,0.525,,,,,,9.5,,,841.0,0,
43,Chris Whitney,1610612764,2001,WAS,30.0,82,26.5,3.3,8.0,1.6,3.9,1.9,2.1,0.1,1.7,1.9,3.8,1.0,0.9,0.1,2.2,10.2,-0.5,0.167,0.568,0.518,0.229,0.037,0.098,91.38,104.1,105.3,7.0,13.856603773584904,10.867924528301886,2.8528301886792455,0.4875,9.5,,26.0,13.153846153846153,59.0,9.88888888888889,0.6999999999999993,0.5,900.0,1,0.0
43,Chris Whitney,1610612753,2002,ORL,31.0,51,20.6,2.4,6.8,1.0,3.2,1.1,1.4,0.1,1.3,1.3,2.8,1.4,0.6,0.0,1.8,7.0,-4.0,0.187,0.468,0.427,0.245,0.032,0.066,94.83,90.5,101.2,2.9,12.233009708737862,11.883495145631066,2.4466019417475726,0.4705882352941177,10.2,9.5,26.5,13.856603773584904,82.0,8.691666666666666,-3.1999999999999993,-5.899999999999999,961.0,2,1.0
43,Chris Whitney,1610612764,2003,WAS,32.0,16,11.5,1.1,2.8,0.5,1.1,0.3,0.3,0.2,0.8,0.9,0.9,0.4,0.4,0.1,0.4,2.9,-3.6,0.124,0.498,0.467,0.146,0.039,0.08,93.14,86.4,104.2,,9.078260869565216,8.765217391304347,0.9391304347826086,0.3928571428571429,7.0,10.2,20.6,12.233009708737862,51.0,6.091666666666666,-4.1,-9.100000000000001,1024.0,3,1.0
45,George McCloud,1610612743,2000,DEN,34.0,76,26.4,3.3,8.6,1.0,3.1,2.0,2.4,0.7,2.2,2.9,3.7,1.5,0.7,0.4,2.2,9.6,-2.8,0.185,0.496,0.44,0.223,0.055,0.082,95.22,101.5,107.0,8.8,13.090909090909092,11.727272727272727,3.272727272727273,0.3604651162790698,,,,,,9.6,,,1156.0,0,
45,George McCloud,1610612743,2001,DEN,35.0,69,26.5,3.0,8.3,0.9,3.2,1.9,2.4,1.0,2.7,3.6,3.0,2.1,0.8,0.3,2.5,8.8,-4.8,0.187,0.466,0.41,0.187,0.068,0.066,92.63,97.0,106.7,,11.954716981132076,11.27547169811321,3.2603773584905658,0.38554216867469876,9.6,,26.4,13.090909090909092,76.0,9.155555555555557,-0.7999999999999989,0.10000000000000142,1225.0,1,0.0
51,Mahmoud Abdul-Rauf,1610612763,2000,VAN,32.0,41,11.8,2.9,6.0,0.1,0.3,0.5,0.7,0.1,0.5,0.6,1.9,0.6,0.2,0.0,1.2,6.5,-0.5,0.262,0.514,0.496,0.285,0.026,0.108,95.17,99.2,100.6,,19.83050847457627,18.305084745762713,2.1355932203389827,0.049999999999999996,,,,,,6.5,,,1024.0,0,
53,Mario Elie,1610612756,2000,PHX,37.0,68,22.2,1.5,3.6,0.5,1.5,0.8,1.0,0.6,1.7,2.3,1.9,0.9,0.9,0.2,1.6,4.4,1.3,0.099,0.541,0.496,0.133,0.052,0.068,93.58,96.5,93.2,,7.135135135135136,5.837837837837839,1.6216216216216217,0.41666666666666663,,,,,,4.4,,,1369.0,0,
54,Dickey Simpkins,1610612737,2001,ATL,30.0,1,2.8,0.0,0.0,0.0,0.0,0.0,0.0,0.0,0.0,0.0,1.0,0.0,0.0,0.0,0.0,0.0,-1.0,0.0,0.0,0.0,0.5,0.0,0.077,112.77,71.4,100.0,,0.0,0.0,0.0,,,,,,,0.0,,,900.0,0,
56,Gary Payton,1610612760,2000,SEA,32.0,79,41.1,9.2,20.1,1.3,3.4,3.4,4.5,0.9,3.6,4.6,8.1,2.6,1.6,0.3,2.3,23.1,-0.2,0.265,0.522,0.488,0.364,0.056,0.148,93.32,103.8,104.2,22.1,20.233576642335766,17.605839416058394,3.941605839416058,0.16915422885572137,,,,,,23.1,,,1024.0,0,
56,Gary Payton,1610612760,2001,SEA,33.0,82,40.2,9.0,19.2,0.9,2.9,3.3,4.1,1.0,3.9,4.8,9.0,2.5,1.6,0.3,2.2,22.1,2.5,0.266,0.526,0.49,0.391,0.062,0.16,91.34,107.0,103.8,20.4,19.791044776119403,17.194029850746265,3.6716417910447756,0.15104166666666666,23.1,,41.1,20.233576642335766,79.0,22.544444444444444,-1.0,-0.8999999999999986,1089.0,1,0.0
56,Gary Payton,1610612749,2002,MIL,34.0,80,40.1,8.3,18.3,0.7,2.3,3.1,4.4,1.0,3.2,4.2,8.3,2.3,1.7,0.3,2.3,20.4,-0.6,0.256,0.504,0.472,0.366,0.053,0.14,91.3,104.4,105.1,14.6,18.314214463840397,16.428927680798004,3.950124688279302,0.1256830601092896,22.1,23.1,40.2,19.791044776119403,82.0,21.64166666666667,-1.7000000000000028,-0.10000000000000142,1156.0,2,1.0
56,Gary Payton,1610612747,2003,LAL,35.0,82,34.6,5.9,12.5,0.7,2.0,2.2,3.1,0.9,3.3,4.2,5.5,1.8,1.2,0.2,2.1,14.6,4.0,0.2,0.528,0.498,0.259,0.059,0.121,94.96,105.2,99.9,11.3,15.190751445086704,13.005780346820808,3.2254335260115607,0.16,20.4,22.1,40.1,18.314214463840397,80.0,18.408333333333335,-5.799999999999999,-5.5,1225.0,3,1.0
56,Gary Payton,1610612738,2004,BOS,36.0,77,33.1,4.4,9.4,0.5,1.7,2.0,2.6,0.6,2.4,3.1,6.1,1.9,1.1,0.2,1.6,11.3,0.6,0.168,0.537,0.497,0.279,0.048,0.104,95.36,108.0,107.2,7.7,12.290030211480362,10.22356495468278,2.8277945619335347,0.18085106382978722,14.6,20.4,34.6,15.190751445086704,82.0,14.674999999999999,-3.299999999999999,-1.5,1296.0,4,1.0
56,Gary Payton,1610612748,2005,MIA,37.0,81,28.5,2.8,6.8,0.8,2.8,1.2,1.6,0.4,2.5,2.9,3.2,1.3,0.9,0.1,2.1,7.7,1.5,0.139,0.52,0.481,0.176,0.052,0.082,93.28,104.3,101.7,5.3,9.726315789473684,8.589473684210526,2.0210526315789474,0.4117647058823529,11.3,14.6,33.1,12.290030211480362,77.0,10.625,-3.6000000000000005,-4.600000000000001,1369.0,5,1.0
56,Gary Payton,1610612748,2006,MIA,38.0,68,22.1,2.1,5.4,0.5,1.8,0.6,0.8,0.3,1.7,1.9,3.0,1.0,0.6,0.0,1.7,5.3,-3.1,0.144,0.458,0.437,0.217,0.046,0.066,90.79,99.2,105.9,,8.633484162895927,8.796380090497737,1.3031674208144794,0.3333333333333333,7.7,11.3,28.5,9.726315789473684,81.0,7.6000000000000005,-2.4000000000000004,-6.399999999999999,1444.0,6,0.0
57,Doug Christie,1610612758,2000,SAC,31.0,81,36.3,3.8,9.7,1.2,3.1,3.5,3.9,1.2,3.2,4.4,3.6,1.9,2.3,0.6,2.8,12.3,4.7,0.156,0.538,0.454,0.142,0.058,0.089,97.1,104.6,98.5,12.0,12.198347107438018,9.6198347107438,3.8677685950413223,0.3195876288659794,,,,,,12.3,,,961.0,0,
57,Doug Christie,1610612758,2001,SAC,32.0,81,34.5,4.2,9.1,1.1,3.2,2.5,3.0,0.9,3.7,4.6,4.2,2.0,2.0,0.3,2.6,12.0,6.0,0.153,0.578,0.521,0.169,0.065,0.099,97.31,108.5,99.6,9.4,12.521739130434781,9.495652173913044,3.1304347826086953,0.3516483516483517,12.3,,36.3,12.198347107438018,81.0,12.133333333333333,-0.3000000000000007,-1.7999999999999972,1024.0,1,0.0
57,Doug Christie,1610612758,2002,SAC,33.0,80,33.9,3.3,7.0,0.9,2.3,1.8,2.2,0.8,3.5,4.3,4.7,1.8,2.3,0.5,2.3,9.4,6.5,0.123,0.59,0.545,0.185,0.061,0.101,98.41,106.0,96.4,10.1,9.982300884955754,7.433628318584071,2.3362831858407085,0.32857142857142857,12.0,12.3,34.5,12.521739130434781,81.0,10.991666666666667,-2.5999999999999996,-0.6000000000000014,1089.0,2,0.0
57,Doug Christie,1610612758,2003,SAC,34.0,82,33.9,3.9,8.4,0.6,1.7,1.8,2.1,0.8,3.2,4.0,4.2,1.9,1.8,0.5,2.3,10.1,4.5,0.147,0.544,0.496,0.178,0.061,0.087,95.92,109.9,103.2,6.6,10.725663716814159,8.920353982300886,2.2300884955752216,0.20238095238095236,9.4,12.0,33.9,9.982300884955754,80.0,10.341666666666667,0.6999999999999993,0.0,1156.0,3,0.0
57,Doug Christie,1610612753,2004,ORL,35.0,52,29.2,2.5,6.4,0.3,1.2,1.3,1.5,0.7,2.7,3.4,3.8,2.0,1.5,0.3,2.0,6.6,1.0,0.136,0.471,0.414,0.192,0.057,0.074,96.8,102.8,100.7,3.7,8.136986301369863,7.89041095890411,1.8493150684931507,0.18749999999999997,10.1,9.4,33.9,10.725663716814159,82.0,8.466666666666667,-3.5,-4.699999999999999,1225.0,4,1.0
57,Doug Christie,1610612742,2005,DAL,36.0,7,26.5,1.3,3.7,0.0,0.1,1.1,1.7,0.3,1.6,1.9,2.0,0.9,1.3,0.1,1.4,3.7,-1.9,0.095,0.416,0.346,0.115,0.038,0.047,90.71,98.3,100.3,1.9,5.026415094339622,5.026415094339622,2.309433962264151,0.02702702702702703,6.6,10.1,29.2,8.136986301369863,52.0,6.266666666666666,-2.8999999999999995,-2.6999999999999993,1296.0,5,1.0
57,Doug Christie,1610612746,2006,LAC,37.0,7,11.7,0.7,2.4,0.1,0.9,0.3,0.4,0.4,1.1,1.6,1.1,0.7,0.4,0.1,1.6,1.9,-4.9,0.134,0.355,0.324,0.182,0.068,0.023,92.25,91.0,109.4,,5.846153846153847,7.384615384615384,1.2307692307692308,0.375,3.7,6.6,26.5,5.026415094339622,7.0,3.6749999999999994,-1.8000000000000003,-14.8,1369.0,6,1.0
63,Michael Smith,1610612764,2000,WAS,29.0,79,20.4,1.3,2.8,0.0,0.0,1.1,1.9,2.2,4.9,7.1,1.3,0.8,0.7,0.5,2.0,3.8,-4.7,0.094,0.527,0.486,0.099,0.178,0.112,95.45,96.1,106.8,,6.705882352941177,4.9411764705882355,3.3529411764705883,0.0,,,,,,3.8,,,841.0,0,
64,Sam Perkins,1610612754,2000,IND,40.0,64,15.6,1.3,3.5,0.6,1.7,0.5,0.6,0.5,2.1,2.6,0.6,0.3,0.5,0.3,1.0,3.8,0.6,0.121,0.499,0.465,0.066,0.088,0.081,90.72,100.6,99.7,,8.769230769230768,8.076923076923077,1.3846153846153846,0.4857142857142857,,,,,,3.8,,,1600.0,0,
67,Tom Hammonds,1610612750,2000,MIN,34.0,7,4.3,0.4,1.4,0.0,0.0,0.1,0.3,0.3,0.3,0.6,0.1,0.4,0.0,0.0,1.1,1.0,1.1,0.184,0.322,0.3,0.04,0.065,-0.077,105.54,112.1,98.5,,8.372093023255815,11.720930232558139,2.511627906976744,0.0,,,,,,1.0,,,1156.0,0,
70,Steve Kerr,1610612759,2000,SAS,35.0,55,11.9,1.2,2.9,0.6,1.4,0.3,0.3,0.1,0.5,0.6,1.0,0.4,0.3,0.0,0.5,3.3,0.1,0.128,0.546,0.525,0.143,0.028,0.071,91.07,101.3,102.9,4.1,9.983193277310923,8.773109243697478,0.9075630252100839,0.48275862068965514,,,,,,3.3,,,1225.0,0,
70,Steve Kerr,1610612757,2001,POR,36.0,65,11.9,1.6,3.3,0.4,1.0,0.6,0.6,0.1,0.8,0.9,1.0,0.4,0.2,0.0,0.8,4.1,1.0,0.147,0.573,0.53,0.134,0.039,0.087,92.79,102.5,98.4,4.0,12.403361344537814,9.983193277310923,1.8151260504201678,0.30303030303030304,3.3,,11.9,9.983193277310923,55.0,3.744444444444445,0.7999999999999998,0.0,1296.0,1,1.0
70,Steve Kerr,1610612759,2002,SAS,37.0,75,12.7,1.5,3.4,0.7,1.7,0.4,0.5,0.2,0.6,0.8,0.9,0.5,0.4,0.0,0.7,4.0,0.6,0.142,0.552,0.525,0.128,0.032,0.081,94.86,96.2,94.9,,11.338582677165354,9.637795275590552,1.4173228346456692,0.5,4.1,3.3,11.9,12.403361344537814,65.0,3.858333333333333,-0.09999999999999964,0.7999999999999989,1369.0,2,1.0
72,Kenny Anderson,1610612738,2000,BOS,30.0,33,25.8,2.7,6.9,0.3,1.0,1.8,2.2,0.5,1.7,2.2,4.1,1.6,1.3,0.1,1.9,7.5,-1.3,0.161,0.476,0.412,0.261,0.043,0.082,95.7,98.8,102.7,9.6,10.465116279069768,9.627906976744187,3.0697674418604652,0.14492753623188406,,,,,,7.5,,,900.0,0,
72,Kenny Anderson,1610612738,2001,BOS,31.0,76,31.9,4.1,9.4,0.1,0.4,1.3,1.7,0.8,2.9,3.6,5.3,1.6,1.9,0.1,2.8,9.6,3.3,0.164,0.472,0.442,0.267,0.056,0.096,94.08,102.7,97.3,6.1,10.83385579937304,10.608150470219437,1.9184952978056427,0.0425531914893617,7.5,,25.8,10.465116279069768,33.0,8.666666666666666,2.0999999999999996,6.099999999999998,961.0,1,0.0
72,Kenny Anderson,1610612740,2002,NOH,32.0,61,18.6,2.7,6.3,0.0,0.1,0.7,0.9,0.5,1.7,2.2,3.2,1.2,1.0,0.1,1.7,6.1,-0.6,0.191,0.457,0.428,0.3,0.058,0.105,91.12,96.6,98.8,6.0,11.806451612903224,12.193548387096774,1.7419354838709677,0.015873015873015876,9.6,7.5,31.9,10.83385579937304,76.0,7.616666666666667,-3.5,-13.299999999999997,1024.0,2,1.0
72,Kenny Anderson,1610612754,2003,IND,33.0,44,20.7,2.6,5.8,0.0,0.1,0.8,1.1,0.4,1.4,1.8,2.8,1.1,0.6,0.1,1.7,6.0,2.0,0.164,0.473,0.443,0.229,0.046,0.076,89.57,99.8,95.9,4.7,10.434782608695652,10.08695652173913,1.9130434782608698,0.017241379310344827,6.1,9.6,18.6,11.806451612903224,61.0,6.933333333333333,-0.09999999999999964,2.099999999999998,1089.0,3,1.0
72,Kenny Anderson,1610612746,2004,LAC,34.0,43,17.3,2.0,4.7,0.1,0.3,0.6,0.9,0.6,1.5,2.0,2.4,1.1,0.8,0.0,2.0,4.7,-4.0,0.155,0.467,0.438,0.22,0.063,0.066,95.07,95.0,106.3,,9.780346820809248,9.780346820809248,1.8728323699421967,0.06382978723404255,6.0,6.1,20.7,10.434782608695652,44.0,5.483333333333333,-1.2999999999999998,-3.3999999999999986,1156.0,4,1.0
76,Cedric Ceballos,1610612748,2000,MIA,31.0,40,13.9,2.5,5.7,0.6,1.8,0.9,1.1,0.9,1.8,2.7,0.5,0.8,0.4,0.2,1.5,6.5,-0.7,0.224,0.526,0.489,0.067,0.096,0.1,93.27,97.7,100.6,,16.834532374100718,14.762589928057555,2.8489208633093526,0.3157894736842105,,,,,,6.5,,,961.0,0,
77,Doug Overton,1610612751,2000,NJN,31.0,21,22.7,2.5,6.6,0.5,1.7,0.5,0.8,0.2,1.7,1.9,3.4,1.5,0.4,0.0,1.8,6.0,-3.4,0.165,0.428,0.414,0.246,0.041,0.053,95.58,97.5,105.2,2.2,9.515418502202643,10.466960352422907,1.2687224669603525,0.25757575757575757,,,,,,6.0,,,961.0,0,
77,Doug Overton,1610612746,2001,LAC,32.0,18,7.3,0.8,2.4,0.4,1.5,0.2,0.4,0.1,0.6,0.7,0.7,0.7,0.2,0.1,0.6,2.2,-0.2,0.195,0.414,0.398,0.167,0.049,0.031,93.85,95.3,97.3,,10.849315068493151,11.835616438356164,1.9726027397260275,0.625,6.0,,22.7,9.515418502202643,21.0,3.888888888888889,-3.8,-15.399999999999999,1024.0,1,1.0
77,Doug Overton,1610612746,2003,LAC,34.0,61,17.0,1.6,4.0,0.0,0.4,0.4,0.5,0.3,1.1,1.4,2.3,1.0,0.4,0.0,1.5,3.7,-1.6,0.135,0.433,0.41,0.215,0.042,0.053,91.7,100.7,105.2,,7.835294117647059,8.470588235294118,1.0588235294117647,0.1,,2.2,,,,3.1375,,,1156.0,2,
84,Latrell Sprewell,1610612752,2000,NYK,30.0,77,39.1,6.8,15.8,0.5,1.8,3.6,4.6,0.6,3.9,4.5,3.5,2.8,1.4,0.4,2.1,17.7,1.5,0.255,0.497,0.447,0.172,0.061,0.111,88.39,99.4,96.9,19.4,16.296675191815854,14.547314578005116,4.235294117647058,0.11392405063291139,,,,,,17.7,,,900.0,0,
84,Latrell Sprewell,1610612752,2001,NYK,31.0,81,41.1,7.1,17.5,1.8,5.0,3.5,4.3,0.7,3.0,3.7,3.9,2.8,1.2,0.2,2.0,19.4,-2.9,0.246,0.501,0.455,0.171,0.045,0.091,91.37,101.2,105.1,16.4,16.992700729927005,15.32846715328467,3.7664233576642334,0.2857142857142857,17.7,,39.1,16.296675191815854,77.0,18.644444444444446,1.6999999999999993,2.0,961.0,1,0.0
84,Latrell Sprewell,1610612752,2002,NYK,32.0,74,38.6,6.1,15.2,1.8,4.9,2.3,2.9,0.6,3.2,3.9,4.5,2.3,1.4,0.3,1.8,16.4,-1.4,0.225,0.497,0.462,0.196,0.052,0.095,92.52,104.0,105.3,16.8,15.295336787564764,14.176165803108807,2.704663212435233,0.32236842105263164,19.4,17.7,41.1,16.992700729927005,81.0,17.724999999999998,-3.0,-2.5,1024.0,2,0.0
84,Latrell Sprewell,1610612750,2003,MIN,33.0,82,37.8,6.3,15.4,1.2,3.6,2.9,3.6,0.7,3.1,3.8,3.5,1.9,1.1,0.3,1.2,16.8,5.0,0.232,0.493,0.448,0.152,0.051,0.1,91.49,104.3,97.9,12.8,16.0,14.666666666666668,3.428571428571429,0.23376623376623376,16.4,19.4,38.6,15.295336787564764,74.0,17.316666666666666,0.40000000000000213,-0.8000000000000043,1089.0,3,1.0
84,Latrell Sprewell,1610612750,2004,MIN,34.0,80,30.6,5.0,12.0,0.9,2.6,2.0,2.4,0.8,2.4,3.2,2.2,1.6,0.7,0.3,1.6,12.8,-0.2,0.217,0.489,0.45,0.119,0.052,0.079,91.84,103.9,104.3,,15.058823529411764,14.117647058823529,2.8235294117647056,0.21666666666666667,16.8,16.4,37.8,16.0,82.0,15.033333333333331,-4.0,-7.199999999999996,1156.0,4,0.0
85,Brent Price,1610612763,2000,VAN,32.0,6,5.0,0.5,1.8,0.2,0.7,1.0,1.2,0.2,0.5,0.7,0.8,0.7,0.3,0.0,1.3,2.2,-1.5,0.254,0.462,0.318,0.263,0.059,0.027,104.46,85.9,97.0,1.6,15.840000000000002,12.959999999999999,8.64,0.38888888888888884,,,,,,2.2,,,1024.0,0,
85,Brent Price,1610612758,2001,SAC,33.0,20,4.4,0.5,1.4,0.2,0.8,0.5,0.7,0.2,0.2,0.4,0.5,0.5,0.2,0.1,0.7,1.6,-1.9,0.178,0.474,0.407,0.164,0.036,0.017,109.32,81.9,102.0,,13.090909090909092,11.454545454545453,5.727272727272727,0.5714285714285715,2.2,,5.0,15.840000000000002,6.0,1.8666666666666667,-0.6000000000000001,-0.5999999999999996,1089.0,1,1.0
87,Dikembe Mutombo,1610612755,2000,PHI,35.0,75,34.6,3.6,7.4,0.0,0.0,2.8,3.9,4.1,9.4,13.5,1.0,1.9,0.4,2.7,2.7,10.0,0.7,0.145,0.547,0.484,0.048,0.196,0.149,90.4,97.1,95.9,11.5,10.404624277456646,7.699421965317919,4.057803468208093,0.0,,,,,,10.0,,,1225.0,0,
87,Dikembe Mutombo,1610612755,2001,PHI,36.0,80,36.3,4.0,8.0,0.0,0.0,3.5,4.6,3.2,7.6,10.8,1.0,2.0,0.4,2.4,3.0,11.5,3.6,0.152,0.574,0.501,0.048,0.152,0.124,89.66,100.6,95.5,5.8,11.404958677685952,7.933884297520661,4.56198347107438,0.0,10.0,,34.6,10.404624277456646,75.0,10.833333333333334,1.5,1.6999999999999957,1296.0,1,0.0
87,Dikembe Mutombo,1610612751,2002,NJN,37.0,24,21.4,2.0,5.5,0.0,0.0,1.7,2.3,2.3,4.1,6.4,0.8,1.4,0.2,1.5,2.3,5.8,4.2,0.161,0.445,0.374,0.055,0.146,0.071,96.01,103.1,93.1,5.6,9.757009345794394,9.252336448598133,3.8691588785046727,0.0,11.5,10.0,36.3,11.404958677685952,80.0,8.75,-5.7,-14.899999999999999,1369.0,2,1.0
87,Dikembe Mutombo,1610612752,2003,NYK,38.0,65,23.1,2.2,4.5,0.0,0.0,1.2,1.8,2.2,4.5,6.7,0.4,0.8,0.3,1.9,2.2,5.6,-0.6,0.122,0.523,0.478,0.026,0.148,0.094,91.91,99.1,100.3,4.0,8.727272727272727,7.012987012987012,2.8051948051948052,0.0,5.8,11.5,21.4,9.757009345794394,24.0,7.141666666666667,-0.20000000000000018,1.7000000000000028,1444.0,3,1.0
87,Dikembe Mutombo,1610612745,2004,HOU,39.0,80,15.3,1.4,2.7,0.0,0.0,1.3,1.8,1.9,3.5,5.3,0.1,0.6,0.2,1.3,1.7,4.0,2.6,0.125,0.575,0.498,0.014,0.172,0.127,90.35,100.0,90.7,2.6,9.411764705882353,6.352941176470589,4.235294117647059,0.0,5.6,5.8,23.1,8.727272727272727,65.0,4.983333333333333,-1.5999999999999996,-7.800000000000001,1521.0,4,1.0
87,Dikembe Mutombo,1610612745,2005,HOU,40.0,64,14.9,0.8,1.5,0.0,0.0,1.1,1.4,1.6,3.2,4.8,0.1,0.5,0.3,0.9,2.0,2.6,-1.4,0.087,0.626,0.526,0.007,0.171,0.097,86.66,97.1,101.4,3.1,6.281879194630872,3.624161073825503,3.3825503355704694,0.0,4.0,5.6,15.3,9.411764705882353,80.0,3.8166666666666664,-1.4,-0.40000000000000036,1600.0,5,0.0
87,Dikembe Mutombo,1610612745,2006,HOU,41.0,75,17.2,1.1,2.0,0.0,0.0,0.8,1.2,2.2,4.3,6.5,0.2,0.5,0.3,1.0,2.1,3.1,1.4,0.082,0.601,0.556,0.016,0.189,0.108,91.66,100.0,96.2,3.0,6.488372093023257,4.186046511627907,2.511627906976744,0.0,2.6,4.0,14.9,6.281879194630872,64.0,3.158333333333333,0.5,2.299999999999999,1681.0,6,0.0
87,Dikembe Mutombo,1610612745,2007,HOU,42.0,39,15.9,1.1,2.1,0.0,0.0,0.8,1.2,1.7,3.4,5.1,0.1,0.4,0.3,1.2,1.4,3.0,1.3,0.086,0.591,0.538,0.012,0.154,0.104,91.03,102.0,97.2,1.8,6.792452830188679,4.754716981132075,2.7169811320754715,0.0,3.1,2.6,17.2,6.488372093023257,75.0,2.9333333333333336,-0.10000000000000009,-1.299999999999999,1764.0,7,0.0
87,Dikembe Mutombo,1610612745,2008,HOU,43.0,9,10.7,0.6,1.4,0.0,0.0,0.7,1.0,1.3,2.3,3.7,0.0,0.7,0.0,1.2,1.2,1.8,0.0,0.108,0.472,0.385,0.0,0.176,0.068,90.47,105.5,104.9,,6.056074766355141,4.710280373831775,3.3644859813084116,0.0,3.0,3.1,15.9,6.792452830188679,39.0,2.525,-1.2,-5.200000000000001,1849.0,8,0.0
89,Nick Van Exel,1610612743,2000,DEN,29.0,71,37.8,6.5,15.7,1.9,5.0,2.9,3.5,0.6,2.8,3.4,8.5,2.3,0.9,0.3,1.5,17.7,-0.9,0.232,0.515,0.474,0.383,0.043,0.128,93.17,103.9,105.1,18.4,16.857142857142858,14.952380952380953,3.3333333333333335,0.3184713375796179,,,,,,17.7,,,841.0,0,
89,Nick Van Exel,1610612742,2001,DAL,30.0,72,34.7,7.0,17.0,1.7,4.9,2.8,3.5,0.4,3.1,3.5,6.6,2.2,0.6,0.2,1.4,18.4,-1.9,0.264,0.495,0.457,0.339,0.049,0.125,92.15,104.2,107.0,12.5,19.0893371757925,17.636887608069163,3.631123919308357,0.2882352941176471,17.7,,37.8,16.857142857142858,71.0,18.08888888888889,0.6999999999999993,-3.0999999999999943,900.0,1,1.0
89,Nick Van Exel,1610612742,2002,DAL,31.0,73,27.9,4.7,11.4,1.6,4.3,1.5,1.9,0.5,2.4,2.8,4.3,1.7,0.6,0.1,1.2,12.5,3.3,0.226,0.509,0.483,0.252,0.051,0.103,93.75,109.6,103.7,12.6,16.129032258064516,14.70967741935484,2.4516129032258065,0.3771929824561403,18.4,17.7,34.7,19.0893371757925,72.0,15.766666666666666,-5.899999999999999,-6.800000000000004,961.0,2,0.0
89,Nick Van Exel,1610612744,2003,GSW,32.0,39,32.2,4.8,12.3,1.2,3.8,1.8,2.5,0.4,2.3,2.7,5.3,2.0,0.5,0.1,1.5,12.6,-4.0,0.215,0.469,0.438,0.281,0.042,0.085,92.76,100.3,107.5,11.1,14.086956521739129,13.751552795031056,2.795031055900621,0.30894308943089427,12.5,18.4,27.9,16.129032258064516,73.0,14.016666666666666,0.09999999999999964,4.300000000000004,1024.0,3,1.0
89,Nick Van Exel,1610612757,2004,POR,33.0,53,30.5,4.0,10.6,1.9,4.8,1.1,1.4,0.4,2.7,3.0,4.3,1.7,0.8,0.0,1.3,11.1,-1.4,0.192,0.494,0.471,0.231,0.05,0.094,91.0,101.1,103.6,5.5,13.101639344262294,12.511475409836066,1.6524590163934425,0.4528301886792453,12.6,12.5,32.2,14.086956521739129,39.0,11.950000000000001,-1.5,-1.7000000000000028,1089.0,4,1.0
89,Nick Van Exel,1610612759,2005,SAS,34.0,65,15.2,2.1,5.3,0.8,2.4,0.4,0.6,0.1,1.3,1.4,1.9,0.9,0.2,0.0,0.9,5.5,0.0,0.199,0.492,0.477,0.22,0.048,0.089,90.28,97.4,97.5,,13.026315789473685,12.55263157894737,1.4210526315789473,0.4528301886792453,11.1,12.6,30.5,13.101639344262294,53.0,9.141666666666667,-5.6,-15.3,1156.0,5,1.0
93,Hubert Davis,1610612764,2000,WAS,31.0,66,25.7,3.0,6.6,1.2,2.6,0.8,0.9,0.4,1.7,2.1,1.7,1.2,0.5,0.0,1.8,7.9,0.1,0.14,0.569,0.543,0.104,0.041,0.065,95.62,101.5,101.8,7.2,11.066147859922179,9.245136186770427,1.2607003891050583,0.393939393939394,,,,,,7.9,,,961.0,0,
93,Hubert Davis,1610612764,2001,WAS,32.0,51,24.2,2.9,6.4,1.1,2.5,0.3,0.4,0.1,1.4,1.5,2.1,0.9,0.5,0.1,1.1,7.2,-0.7,0.14,0.544,0.535,0.144,0.032,0.077,90.11,101.2,103.6,1.8,10.710743801652892,9.520661157024794,0.5950413223140496,0.390625,7.9,,25.7,11.066147859922179,66.0,7.51111111111111,-0.7000000000000002,-1.5,1024.0,1,0.0
93,Hubert Davis,1610612765,2002,DET,33.0,43,7.5,0.7,1.8,0.3,0.8,0.1,0.1,0.1,0.7,0.8,0.7,0.3,0.1,0.0,0.5,1.8,-0.7,0.132,0.484,0.468,0.163,0.057,0.069,91.03,93.3,97.2,0.2,8.64,8.64,0.48000000000000004,0.4444444444444445,7.2,7.9,24.2,10.710743801652892,51.0,5.125,-5.4,-16.7,1089.0,2,1.0
93,Hubert Davis,1610612751,2003,NJN,34.0,17,4.5,0.1,0.6,0.0,0.1,0.1,0.1,0.1,0.4,0.5,0.2,0.2,0.1,0.0,0.7,0.2,0.4,0.09,0.168,0.091,0.083,0.053,-0.048,89.68,88.9,85.2,,1.6,4.8,0.8,0.16666666666666669,1.8,7.2,7.5,8.64,43.0,2.4833333333333334,-1.6,-3.0,1156.0,3,1.0
95,Mark Bryant,1610612742,2000,DAL,36.0,18,5.7,0.4,1.1,0.0,0.0,0.2,0.3,0.2,0.9,1.2,0.2,0.3,0.1,0.1,1.6,1.1,-1.1,0.116,0.428,0.4,0.042,0.108,-0.014,98.23,101.0,110.0,1.9,6.947368421052632,6.947368421052632,1.894736842105263,0.0,,,,,,1.1,,,1296.0,0,
95,Mark Bryant,1610612759,2001,SAS,37.0,30,6.7,0.8,1.8,0.0,0.0,0.2,0.3,0.8,0.6,1.5,0.3,0.2,0.2,0.1,1.3,1.9,-0.6,0.139,0.478,0.455,0.078,0.103,0.048,95.86,92.1,96.8,0.8,10.208955223880597,9.671641791044776,1.6119402985074627,0.0,1.1,,5.7,6.947368421052632,18.0,1.5444444444444445,0.7999999999999998,1.0,1369.0,1,1.0
95,Mark Bryant,1610612738,2002,BOS,38.0,16,6.2,0.3,1.2,0.0,0.0,0.2,0.3,0.5,0.8,1.3,0.3,0.4,0.1,0.1,1.1,0.8,-1.1,0.124,0.313,0.263,0.08,0.104,-0.026,94.3,85.1,94.4,,4.64516129032258,6.967741935483871,1.7419354838709677,0.0,1.9,1.1,6.7,10.208955223880597,30.0,1.2416666666666667,-1.0999999999999999,-0.5,1444.0,2,1.0
96,Detlef Schrempf,1610612757,2000,POR,38.0,26,15.2,1.5,3.7,0.1,0.3,0.9,1.0,0.7,2.3,3.0,1.7,1.1,0.3,0.1,1.7,4.0,-1.3,0.158,0.487,0.426,0.182,0.104,0.078,91.36,101.5,105.8,,9.473684210526315,8.763157894736842,2.3684210526315788,0.08108108108108107,,,,,,4.0,,,1444.0,0,
98,Nick Anderson,1610612758,2000,SAC,33.0,21,8.1,0.7,2.7,0.5,1.9,0.0,0.0,0.1,1.0,1.2,0.6,0.3,0.5,0.2,0.6,1.8,-0.2,0.167,0.333,0.333,0.125,0.067,0.046,95.07,94.4,95.5,4.0,8.0,12.000000000000002,0.0,0.7037037037037036,,,,,,1.8,,,1089.0,0,
98,Nick Anderson,1610612763,2001,MEM,34.0,15,14.7,1.4,5.1,0.9,3.2,0.3,0.6,0.1,2.1,2.2,0.9,0.9,0.4,0.4,1.1,4.0,-4.1,0.192,0.375,0.362,0.127,0.076,0.042,93.91,85.1,98.4,,9.795918367346939,12.489795918367347,1.469387755102041,0.627450980392157,1.8,,8.1,8.0,21.0,3.022222222222222,2.2,6.6,1156.0,1,1.0
103,Todd Day,1610612750,2000,MIN,31.0,31,11.0,1.4,3.8,0.8,2.2,0.6,0.7,0.3,0.9,1.2,0.9,0.8,0.3,0.2,1.7,4.3,0.1,0.195,0.515,0.483,0.131,0.057,0.048,96.15,100.1,99.0,,14.07272727272727,12.436363636363637,2.2909090909090906,0.5789473684210527,,,,,,4.3,,,961.0,0,
105,Dan Majerle,1610612748,2000,MIA,35.0,53,24.6,1.6,4.9,1.1,3.4,0.7,0.8,0.4,2.8,3.1,1.7,0.7,1.0,0.3,1.8,5.0,2.1,0.111,0.48,0.446,0.108,0.067,0.07,90.15,99.2,95.7,4.6,7.317073170731707,7.170731707317073,1.170731707317073,0.693877551020408,,,,,,5.0,,,1225.0,0,
105,Dan Majerle,1610612756,2001,PHX,36.0,65,18.2,1.5,4.4,1.2,3.6,0.4,0.6,0.4,2.3,2.7,1.4,0.5,0.7,0.2,1.6,4.6,1.0,0.127,0.49,0.479,0.112,0.073,0.07,94.02,102.5,99.4,,9.098901098901099,8.703296703296704,1.1868131868131868,0.8181818181818181,5.0,,24.6,7.317073170731707,53.0,4.777777777777778,-0.40000000000000036,-6.400000000000002,1296.0,1,1.0
109,Robert Horry,1610612747,2000,LAL,30.0,79,20.1,1.9,4.8,0.7,2.0,0.7,1.1,1.2,2.6,3.7,1.6,1.0,0.7,0.7,2.7,5.2,0.5,0.138,0.489,0.458,0.124,0.093,0.068,94.0,104.7,103.1,6.8,9.313432835820896,8.597014925373132,1.9701492537313432,0.4166666666666667,,,,,,5.2,,,900.0,0,
109,Robert Horry,1610612747,2001,LAL,31.0,81,26.5,2.3,5.7,0.9,2.5,1.3,1.7,1.6,4.3,5.9,2.9,1.1,1.0,1.1,2.6,6.8,4.5,0.127,0.528,0.48,0.158,0.108,0.108,94.4,106.9,98.5,6.5,9.237735849056603,7.743396226415094,2.309433962264151,0.43859649122807015,5.2,,20.1,9.313432835820896,79.0,6.088888888888889,1.5999999999999996,6.399999999999999,961.0,1,0.0
109,Robert Horry,1610612747,2002,LAL,32.0,80,29.3,2.3,6.0,0.6,2.2,1.3,1.7,2.3,4.2,6.4,2.9,1.4,1.2,0.8,3.1,6.5,2.6,0.121,0.488,0.44,0.148,0.109,0.086,94.41,104.1,100.2,4.8,7.986348122866894,7.372013651877133,2.0887372013651877,0.3666666666666667,6.8,5.2,26.5,9.237735849056603,81.0,6.275000000000001,-0.2999999999999998,2.8000000000000007,1024.0,2,0.0
109,Robert Horry,1610612759,2003,SAS,33.0,81,15.9,1.7,4.3,0.5,1.3,0.9,1.3,1.3,2.0,3.4,1.2,0.7,0.6,0.6,2.0,4.8,2.9,0.156,0.496,0.464,0.13,0.102,0.095,92.11,98.6,90.0,6.0,10.867924528301886,9.735849056603774,2.943396226415094,0.3023255813953489,6.5,6.8,29.3,7.986348122866894,80.0,5.866666666666667,-1.7000000000000002,-13.4,1089.0,3,1.0
109,Robert Horry,1610612759,2004,SAS,34.0,75,18.8,2.1,5.0,0.7,1.8,1.1,1.5,1.2,2.4,3.6,1.1,0.9,0.9,0.8,1.8,6.0,4.0,0.16,0.533,0.487,0.091,0.101,0.096,91.75,105.8,95.8,5.1,11.489361702127658,9.574468085106382,2.8723404255319145,0.36,4.8,6.5,15.9,10.867924528301886,81.0,5.7250000000000005,1.2000000000000002,2.9000000000000004,1156.0,4,0.0
109,Robert Horry,1610612759,2005,SAS,35.0,63,18.8,1.8,4.6,0.8,2.3,0.7,1.1,1.1,2.7,3.8,1.3,0.7,0.7,0.8,1.8,5.1,3.7,0.144,0.499,0.474,0.106,0.109,0.092,92.51,104.1,94.4,3.9,9.76595744680851,8.808510638297872,2.1063829787234045,0.5,6.0,4.8,18.8,11.489361702127658,75.0,5.325,-0.9000000000000004,0.0,1225.0,5,0.0
109,Robert Horry,1610612759,2006,SAS,36.0,68,16.5,1.3,3.7,0.7,2.2,0.6,0.9,1.1,2.3,3.4,1.1,0.6,0.7,0.6,1.5,3.9,2.7,0.135,0.48,0.458,0.106,0.105,0.078,91.98,103.4,94.8,2.5,8.50909090909091,8.072727272727272,1.9636363636363638,0.5945945945945946,5.1,6.0,18.8,9.76595744680851,63.0,4.825,-1.1999999999999997,-2.3000000000000007,1296.0,6,0.0
109,Robert Horry,1610612759,2007,SAS,37.0,45,12.9,0.8,2.6,0.4,1.6,0.4,0.6,0.8,1.6,2.4,1.0,0.5,0.5,0.4,1.2,2.5,0.3,0.122,0.426,0.395,0.132,0.097,0.064,90.86,97.8,97.5,,6.976744186046511,7.255813953488372,1.6744186046511627,0.6153846153846154,3.9,5.1,16.5,8.50909090909091,68.0,3.6166666666666667,-1.4,-3.5999999999999996,1369.0,7,0.0
111,LaPhonso Ellis,1610612750,2000,MIN,31.0,82,23.7,3.6,7.8,0.1,0.3,2.1,2.6,2.4,3.6,6.0,1.1,1.3,0.8,0.9,3.5,9.4,0.2,0.192,0.524,0.47,0.079,0.131,0.096,92.74,104.4,103.8,7.1,14.27848101265823,11.848101265822784,3.949367088607595,0.038461538461538464,,,,,,9.4,,,961.0,0,
111,LaPhonso Ellis,1610612748,2001,MIA,32.0,66,25.5,2.9,6.8,0.6,1.9,0.8,1.3,1.6,2.7,4.3,0.8,1.1,0.5,0.6,3.0,7.1,-2.8,0.157,0.48,0.46,0.059,0.087,0.056,89.31,92.9,98.3,5.0,10.023529411764706,9.6,1.8352941176470587,0.27941176470588236,9.4,,23.7,14.27848101265823,82.0,8.122222222222222,-2.3000000000000007,1.8000000000000007,1024.0,1,1.0
111,LaPhonso Ellis,1610612748,2002,MIA,33.0,55,14.2,1.8,4.8,0.5,1.9,0.9,1.2,0.8,2.1,2.9,0.3,0.6,0.3,0.3,1.6,5.0,0.2,0.19,0.476,0.433,0.036,0.101,0.078,90.81,94.8,94.5,,12.67605633802817,12.169014084507042,3.0422535211267605,0.3958333333333333,7.1,9.4,25.5,10.023529411764706,66.0,6.8,-2.0999999999999996,-11.3,1089.0,2,0.0
120,Steven Smith,1610612757,2000,POR,32.0,81,31.4,4.4,9.7,1.0,2.8,3.8,4.3,1.1,2.3,3.4,2.6,1.7,0.6,0.3,2.5,13.6,3.4,0.19,0.587,0.505,0.139,0.057,0.102,91.38,105.3,100.2,11.6,15.59235668789809,11.121019108280255,4.929936305732484,0.288659793814433,,,,,,13.6,,,1024.0,0,
120,Steven Smith,1610612759,2001,SAS,33.0,77,28.7,4.0,8.9,1.5,3.2,2.1,2.4,0.6,1.9,2.5,2.0,1.4,0.7,0.2,2.1,11.6,3.8,0.178,0.588,0.54,0.113,0.045,0.088,91.96,105.4,98.8,6.8,14.550522648083625,11.16376306620209,3.0104529616724736,0.3595505617977528,13.6,,31.4,15.59235668789809,81.0,12.488888888888889,-2.0,-2.6999999999999993,1089.0,1,1.0
120,Steven Smith,1610612759,2002,SAS,34.0,53,19.5,2.1,5.5,0.7,2.2,1.8,2.2,0.4,1.5,1.9,1.3,0.8,0.5,0.2,1.5,6.8,0.8,0.167,0.528,0.455,0.114,0.048,0.079,92.36,98.9,97.0,5.0,12.553846153846154,10.153846153846153,4.061538461538462,0.4,11.6,13.6,28.7,14.550522648083625,77.0,10.1,-4.8,-9.2,1156.0,2,0.0
120,Steven Smith,1610612740,2003,NOH,35.0,71,13.0,1.7,4.1,0.6,1.5,1.1,1.2,0.4,0.8,1.1,0.8,0.6,0.2,0.1,1.3,5.0,-0.3,0.177,0.543,0.48,0.109,0.046,0.068,92.38,100.6,102.6,6.3,13.846153846153847,11.353846153846153,3.323076923076923,0.3658536585365854,6.8,11.6,19.5,12.553846153846154,53.0,7.25,-1.7999999999999998,-6.5,1225.0,3,1.0
120,Steven Smith,1610612748,2004,MIA,36.0,50,14.9,2.0,5.0,0.8,2.1,1.4,1.6,0.3,1.0,1.3,1.4,0.5,0.3,0.1,1.6,6.3,-0.8,0.181,0.554,0.494,0.161,0.044,0.089,93.9,101.1,105.4,,15.221476510067115,12.080536912751679,3.8657718120805367,0.42000000000000004,5.0,6.8,13.0,13.846153846153847,71.0,5.991666666666667,1.2999999999999998,1.9000000000000004,1296.0,4,1.0
121,Patrick Ewing,1610612760,2000,SEA,38.0,79,26.6,3.7,8.7,0.0,0.0,2.2,3.2,1.6,5.8,7.4,1.2,1.9,0.7,1.2,2.9,9.6,-2.0,0.201,0.478,0.43,0.071,0.14,0.088,93.18,100.4,104.1,6.0,12.992481203007518,11.774436090225562,4.330827067669173,0.0,,,,,,9.6,,,1444.0,0,
121,Patrick Ewing,1610612753,2001,ORL,39.0,65,13.8,2.3,5.1,0.0,0.0,1.4,2.1,0.9,3.1,4.0,0.5,1.0,0.3,0.7,2.0,6.0,-0.3,0.223,0.497,0.444,0.066,0.143,0.097,94.7,100.7,102.6,,15.652173913043478,13.304347826086955,5.478260869565218,0.0,9.6,,26.6,12.992481203007518,79.0,7.6000000000000005,-3.5999999999999996,-12.8,1521.0,1,1.0
123,Robert Pack,1610612743,2000,DEN,32.0,74,17.0,2.4,5.8,0.2,0.4,1.4,1.9,0.4,1.4,1.9,4.0,1.8,0.9,0.0,1.5,6.5,-1.6,0.209,0.493,0.439,0.375,0.052,0.101,98.04,98.1,102.8,3.9,13.76470588235294,12.282352941176471,4.023529411764706,0.06896551724137931,,,,,,6.5,,,1024.0,0,
123,Robert Pack,1610612750,2001,MIN,33.0,16,15.9,1.6,4.3,0.1,0.3,0.7,0.9,0.4,1.0,1.4,3.1,1.3,0.8,0.0,2.0,3.9,-1.4,0.164,0.416,0.375,0.316,0.045,0.061,92.14,98.2,104.8,5.2,8.830188679245284,9.735849056603774,2.0377358490566038,0.06976744186046512,6.5,,17.0,13.76470588235294,74.0,5.055555555555555,-2.6,-1.0999999999999996,1089.0,1,1.0
123,Robert Pack,1610612740,2002,NOH,34.0,28,15.6,1.9,4.6,0.0,0.2,1.5,2.0,0.4,1.4,1.8,2.9,1.4,0.9,0.0,1.3,5.2,-3.0,0.199,0.473,0.403,0.333,0.059,0.096,93.2,95.4,103.9,1.9,12.000000000000002,10.615384615384615,4.615384615384616,0.04347826086956522,3.9,6.5,15.9,8.830188679245284,16.0,5.091666666666667,1.3000000000000003,-0.3000000000000007,1156.0,2,1.0
123,Robert Pack,1610612751,2003,NJN,35.0,26,8.3,0.8,2.0,0.0,0.0,0.2,0.2,0.2,0.5,0.7,1.0,0.6,0.5,0.0,0.8,1.9,-2.4,0.151,0.448,0.423,0.262,0.043,0.076,91.47,75.8,92.6,,8.240963855421686,8.674698795180722,0.8674698795180722,0.0,5.2,3.9,15.6,12.000000000000002,28.0,3.5,-3.3000000000000003,-7.299999999999999,1225.0,3,1.0
124,Vlade Divac,1610612758,2000,SAC,33.0,81,29.8,4.5,9.3,0.0,0.2,3.0,4.3,2.6,5.8,8.3,2.9,2.4,1.1,1.1,3.0,12.0,3.6,0.199,0.536,0.485,0.143,0.137,0.112,96.81,105.4,99.5,11.1,14.496644295302012,11.23489932885906,5.194630872483221,0.02150537634408602,,,,,,12.0,,,1089.0,0,
124,Vlade Divac,1610612758,2001,SAC,34.0,80,30.2,4.2,9.0,0.0,0.2,2.6,4.3,2.6,5.8,8.4,3.7,2.0,1.0,1.2,2.9,11.1,5.8,0.185,0.513,0.474,0.177,0.134,0.113,97.19,107.1,97.2,9.9,13.2317880794702,10.728476821192054,5.125827814569536,0.022222222222222223,12.0,,29.8,14.496644295302012,81.0,11.5,-0.9000000000000004,0.3999999999999986,1156.0,1,0.0
124,Vlade Divac,1610612758,2002,SAC,35.0,80,29.8,3.8,8.2,0.1,0.3,2.2,3.1,2.0,5.2,7.2,3.4,1.9,1.0,1.3,3.0,9.9,5.9,0.171,0.519,0.47,0.16,0.116,0.103,97.12,106.3,96.4,9.9,11.959731543624162,9.906040268456376,3.7449664429530203,0.03658536585365854,11.1,12.0,30.2,13.2317880794702,80.0,10.825000000000001,-1.1999999999999993,-0.3999999999999986,1225.0,2,0.0
124,Vlade Divac,1610612758,2003,SAC,36.0,81,28.6,3.9,8.2,0.0,0.2,2.1,3.2,1.7,4.0,5.7,5.3,2.1,0.7,1.0,2.7,9.9,4.3,0.187,0.511,0.472,0.273,0.105,0.101,94.61,111.2,103.7,2.3,12.461538461538462,10.32167832167832,4.027972027972028,0.02439024390243903,9.9,11.1,29.8,11.959731543624162,80.0,10.2,0.0,-1.1999999999999993,1296.0,3,0.0
124,Vlade Divac,1610612747,2004,LAL,37.0,15,8.7,0.9,2.1,0.0,0.0,0.5,0.8,1.2,0.9,2.1,1.3,0.9,0.3,0.1,1.7,2.3,-1.9,0.16,0.469,0.419,0.247,0.119,0.046,96.06,98.1,106.8,,9.517241379310345,8.689655172413794,3.3103448275862073,0.0,9.9,9.9,28.6,12.461538461538462,81.0,6.733333333333334,-7.6000000000000005,-19.900000000000002,1369.0,4,1.0
128,David Benoit,1610612762,2000,UTA,33.0,49,9.1,1.4,3.0,0.1,0.3,0.6,0.8,0.4,1.2,1.7,0.4,0.6,0.1,0.1,1.5,3.6,-0.3,0.195,0.542,0.5,0.087,0.1,0.072,95.87,99.5,99.9,,14.241758241758243,11.868131868131869,3.164835164835165,0.09999999999999999,,,,,,3.6,,,1089.0,0,
133,David Wesley,1610612766,2000,CHH,30.0,82,37.9,6.4,15.1,1.2,3.1,3.3,4.1,0.8,2.0,2.7,4.4,2.1,1.6,0.2,2.7,17.2,1.4,0.223,0.509,0.461,0.214,0.036,0.097,92.35,99.4,97.7,14.2,16.337730870712402,14.343007915567282,3.8944591029023745,0.20529801324503313,,,,,,17.2,,,900.0,0,
133,David Wesley,1610612766,2001,CHH,31.0,67,37.2,5.4,13.6,1.3,3.8,2.1,2.8,0.7,1.5,2.1,3.5,1.8,1.1,0.2,2.2,14.2,-1.1,0.2,0.479,0.447,0.163,0.028,0.067,92.08,102.0,103.2,16.7,13.741935483870966,13.161290322580644,2.709677419354838,0.27941176470588236,17.2,,37.9,16.337730870712402,82.0,15.533333333333335,-3.0,-0.6999999999999957,961.0,1,0.0
133,David Wesley,1610612740,2002,NOH,32.0,73,37.1,6.2,14.2,1.8,4.3,2.5,3.2,0.5,1.9,2.4,3.4,1.8,1.5,0.1,2.4,16.7,2.1,0.21,0.533,0.498,0.159,0.033,0.093,91.79,103.7,100.8,14.0,16.20485175202156,13.77897574123989,3.105121293800539,0.3028169014084507,14.2,17.2,37.2,13.741935483870966,67.0,15.991666666666667,2.5,-0.10000000000000142,1024.0,2,1.0
133,David Wesley,1610612740,2003,NOH,33.0,61,32.9,5.1,13.1,1.5,4.7,2.2,3.0,0.5,1.7,2.2,2.9,1.6,1.2,0.2,2.4,14.0,-0.7,0.219,0.483,0.446,0.159,0.033,0.073,91.4,98.7,99.9,11.9,15.319148936170214,14.33434650455927,3.282674772036474,0.3587786259541985,16.7,14.2,37.1,16.20485175202156,73.0,14.950000000000001,-2.6999999999999993,-4.200000000000003,1089.0,3,0.0
133,David Wesley,1610612745,2004,HOU,34.0,80,34.7,4.2,10.5,1.5,3.9,2.0,2.4,0.5,2.4,2.9,3.3,1.4,1.2,0.1,2.7,11.9,-0.1,0.168,0.513,0.468,0.159,0.042,0.075,91.29,102.7,102.8,9.9,12.345821325648414,10.89337175792507,2.4899135446685876,0.37142857142857144,14.0,16.7,32.9,15.319148936170214,61.0,13.799999999999999,-2.0999999999999996,1.8000000000000043,1156.0,4,1.0
133,David Wesley,1610612745,2005,HOU,35.0,71,33.4,3.2,7.9,1.4,3.8,2.1,2.6,0.3,2.2,2.5,2.9,1.7,0.8,0.1,3.0,9.9,-1.1,0.149,0.546,0.491,0.147,0.039,0.062,90.13,100.2,101.8,2.1,10.67065868263473,8.514970059880241,2.8023952095808387,0.48101265822784806,11.9,14.0,34.7,12.345821325648414,80.0,11.591666666666667,-2.0,-1.3000000000000043,1225.0,5,0.0
133,David Wesley,1610612739,2006,CLE,36.0,35,10.1,0.6,2.1,0.3,1.1,0.6,0.8,0.1,0.9,1.0,1.1,0.5,0.3,0.1,0.9,2.1,-0.3,0.133,0.418,0.353,0.172,0.05,0.05,94.27,95.5,97.3,,7.485148514851486,7.485148514851486,2.8514851485148514,0.5238095238095238,9.9,11.9,33.4,10.67065868263473,71.0,7.150000000000001,-7.800000000000001,-23.299999999999997,1296.0,6,1.0
136,P.J. Brown,1610612766,2000,CHH,31.0,80,35.1,3.1,7.0,0.0,0.1,2.2,2.6,3.2,6.1,9.3,1.6,1.4,1.0,1.2,3.3,8.5,3.0,0.123,0.518,0.444,0.071,0.134,0.096,91.67,101.3,96.7,8.4,8.717948717948717,7.17948717948718,2.6666666666666665,0.014285714285714287,,,,,,8.5,,,961.0,0,
136,P.J. Brown,1610612766,2001,CHH,32.0,80,32.0,3.1,6.6,0.0,0.0,2.1,2.5,3.4,6.4,9.8,1.3,1.1,0.7,1.0,2.8,8.4,1.8,0.121,0.545,0.474,0.064,0.155,0.111,91.25,104.2,101.3,10.7,9.450000000000001,7.425,2.8125,0.0,8.5,,35.1,8.717948717948717,80.0,8.444444444444445,-0.09999999999999964,-3.1000000000000014,1024.0,1,0.0
136,P.J. Brown,1610612740,2002,NOH,33.0,78,33.5,4.1,7.7,0.0,0.0,2.5,3.0,3.1,5.9,9.0,1.9,1.3,0.9,1.0,2.6,10.7,1.3,0.139,0.592,0.531,0.09,0.137,0.128,91.29,104.2,101.8,10.5,11.498507462686566,8.274626865671642,3.2238805970149254,0.0,8.4,8.5,32.0,9.450000000000001,80.0,9.383333333333333,2.299999999999999,1.5,1089.0,2,1.0
136,P.J. Brown,1610612740,2003,NOH,34.0,80,34.5,4.2,8.9,0.0,0.0,2.0,2.3,3.0,5.7,8.6,1.9,1.3,1.0,0.9,2.5,10.5,1.0,0.147,0.527,0.476,0.097,0.125,0.116,91.02,100.9,99.0,10.8,10.956521739130435,9.28695652173913,2.4,0.0,10.7,8.4,33.5,11.498507462686566,78.0,10.041666666666666,-0.1999999999999993,1.0,1156.0,3,0.0
136,P.J. Brown,1610612740,2004,NOH,35.0,82,34.5,4.1,9.2,0.0,0.0,2.6,3.0,3.2,5.7,9.0,2.2,1.2,0.9,0.6,2.8,10.8,-4.9,0.157,0.512,0.446,0.109,0.134,0.113,89.74,99.0,106.8,9.0,11.269565217391305,9.6,3.1304347826086953,0.0,10.5,10.7,34.5,10.956521739130435,80.0,10.674999999999999,0.3000000000000007,0.0,1225.0,4,0.0
136,P.J. Brown,1610612740,2005,NOK,36.0,75,31.7,3.6,7.8,0.0,0.0,1.9,2.2,2.4,4.9,7.3,1.2,1.2,0.6,0.7,2.9,9.0,-2.2,0.145,0.515,0.461,0.062,0.121,0.088,90.57,101.6,104.8,6.1,10.220820189274448,8.858044164037855,2.4984227129337544,0.0,10.8,10.5,34.5,11.269565217391305,82.0,9.975,-1.8000000000000007,-2.8000000000000007,1296.0,5,0.0
136,P.J. Brown,1610612741,2006,CHI,37.0,72,20.2,2.4,5.8,0.0,0.0,1.3,1.7,1.8,3.0,4.8,0.7,1.2,0.3,0.7,2.6,6.1,2.7,0.172,0.462,0.407,0.049,0.122,0.06,94.0,103.1,95.3,2.2,10.87128712871287,10.336633663366335,3.0297029702970297,0.0,9.0,10.8,31.7,10.220820189274448,75.0,8.241666666666667,-2.9000000000000004,-11.5,1369.0,6,1.0
136,P.J. Brown,1610612738,2007,BOS,38.0,18,11.6,0.8,2.3,0.0,0.1,0.6,0.9,1.6,2.2,3.8,0.6,0.6,0.3,0.4,1.6,2.2,-0.2,0.122,0.406,0.341,0.078,0.157,0.07,91.7,96.5,97.5,,6.8275862068965525,7.137931034482758,2.793103448275862,0.04347826086956522,6.1,9.0,20.2,10.87128712871287,72.0,5.2,-3.8999999999999995,-8.6,1444.0,7,1.0
137,Vernon Maxwell,1610612742,2000,DAL,35.0,43,15.4,1.7,5.2,0.8,2.6,0.5,0.7,0.1,1.4,1.5,1.1,0.8,0.5,0.1,1.5,4.7,-0.2,0.182,0.424,0.404,0.12,0.05,0.038,96.46,99.1,99.5,,10.987012987012987,12.155844155844155,1.6363636363636362,0.5,,,,,,4.7,,,1225.0,0,
145,Tracy Murray,1610612761,2000,TOR,29.0,51,11.5,1.8,4.9,0.7,2.0,0.6,0.8,0.4,1.2,1.6,0.5,0.5,0.2,0.1,1.0,5.0,-0.9,0.213,0.482,0.452,0.068,0.067,0.065,95.67,100.2,104.3,5.7,15.652173913043478,15.33913043478261,2.5043478260869567,0.4081632653061224,,,,,,5.0,,,841.0,0,
145,Tracy Murray,1610612761,2001,TOR,30.0,40,11.8,2.1,5.2,1.0,2.6,0.4,0.5,0.5,0.9,1.3,0.5,0.6,0.3,0.2,1.0,5.7,-1.3,0.225,0.525,0.507,0.074,0.057,0.075,92.08,97.9,105.7,1.9,17.389830508474574,15.864406779661017,1.5254237288135593,0.5,5.0,,11.5,15.652173913043478,51.0,5.388888888888889,0.7000000000000002,0.3000000000000007,900.0,1,0.0
145,Tracy Murray,1610612747,2002,LAL,31.0,32,5.9,0.7,2.2,0.3,1.2,0.2,0.3,0.2,0.6,0.7,0.4,0.4,0.2,0.1,0.7,1.9,-1.4,0.193,0.407,0.38,0.103,0.059,0.024,100.37,95.5,107.6,1.1,11.59322033898305,13.423728813559322,1.830508474576271,0.5454545454545454,5.7,5.0,11.8,17.389830508474574,40.0,3.9416666666666664,-3.8000000000000003,-5.9,961.0,2,1.0
145,Tracy Murray,1610612757,2003,POR,32.0,7,5.0,0.4,1.7,0.3,0.7,0.0,0.1,0.4,0.3,0.7,0.1,0.3,0.1,0.0,0.4,1.1,-0.7,0.184,0.322,0.333,0.045,0.0,-0.013,89.81,97.0,109.4,,7.920000000000001,12.239999999999998,0.72,0.4117647058823529,1.9,5.7,5.9,11.59322033898305,32.0,2.516666666666667,-0.7999999999999998,-0.9000000000000004,1024.0,3,1.0
146,Jud Buechler,1610612765,2000,DET,33.0,57,12.9,1.3,2.9,0.6,1.4,0.2,0.2,0.4,1.3,1.6,0.7,0.4,0.4,0.2,1.5,3.4,0.0,0.11,0.568,0.558,0.083,0.061,0.068,99.94,94.1,93.9,1.7,9.488372093023255,8.093023255813954,0.5581395348837209,0.48275862068965514,,,,,,3.4,,,1089.0,0,
146,Jud Buechler,1610612753,2001,ORL,34.0,66,10.3,0.7,1.8,0.3,0.9,0.0,0.1,0.4,1.3,1.8,0.5,0.2,0.3,0.1,0.8,1.7,-1.6,0.085,0.463,0.462,0.069,0.085,0.057,97.95,95.2,103.0,,5.941747572815533,6.29126213592233,0.3495145631067961,0.5,3.4,,12.9,9.488372093023255,57.0,2.4555555555555557,-1.7,-2.5999999999999996,1156.0,1,1.0
147,Jalen Rose,1610612754,2000,IND,28.0,72,40.9,7.9,17.3,0.8,2.4,4.0,4.8,0.5,4.5,5.0,6.0,2.9,0.9,0.6,3.2,20.5,-0.6,0.254,0.53,0.48,0.288,0.061,0.133,91.0,100.3,100.7,20.4,18.0440097799511,15.227383863080686,4.224938875305623,0.13872832369942195,,,,,,20.5,,,784.0,0,
147,Jalen Rose,1610612741,2001,CHI,29.0,83,38.0,8.0,17.6,1.1,3.0,3.4,4.0,0.5,4.0,4.5,4.3,2.4,0.9,0.5,3.0,20.4,-1.5,0.257,0.528,0.485,0.203,0.06,0.113,93.94,102.6,104.6,22.1,19.326315789473686,16.673684210526318,3.789473684210526,0.17045454545454544,20.5,,40.9,18.0440097799511,72.0,20.444444444444443,-0.10000000000000142,-2.8999999999999986,841.0,1,1.0
147,Jalen Rose,1610612741,2002,CHI,30.0,82,40.9,7.8,19.3,1.6,4.4,4.9,5.7,0.8,3.5,4.3,4.8,3.5,0.9,0.3,3.3,22.1,-4.8,0.27,0.508,0.448,0.209,0.051,0.098,95.25,99.3,105.1,15.5,19.45232273838631,16.987775061124694,5.017114914425428,0.22797927461139897,20.4,20.5,38.0,19.326315789473686,83.0,21.133333333333333,1.7000000000000028,2.8999999999999986,900.0,2,0.0
147,Jalen Rose,1610612761,2003,TOR,31.0,66,38.1,5.8,14.4,1.0,3.1,2.8,3.5,0.5,3.5,4.0,5.0,3.2,0.8,0.3,2.8,15.5,-1.9,0.232,0.485,0.439,0.236,0.054,0.089,91.58,97.9,100.5,18.5,14.645669291338582,13.606299212598426,3.3070866141732282,0.2152777777777778,22.1,20.4,40.9,19.45232273838631,82.0,18.925,-6.600000000000001,-2.799999999999997,961.0,3,1.0
147,Jalen Rose,1610612761,2004,TOR,32.0,81,33.5,6.5,14.3,1.3,3.4,4.1,4.8,0.5,2.9,3.4,2.6,2.2,0.8,0.1,2.3,18.5,-2.3,0.248,0.562,0.501,0.14,0.052,0.105,94.82,104.9,108.5,12.3,19.880597014925375,15.367164179104478,5.158208955223881,0.23776223776223773,15.5,22.1,38.1,14.645669291338582,66.0,18.400000000000002,3.0,-4.600000000000001,1024.0,4,0.0
147,Jalen Rose,1610612752,2005,NYK,33.0,72,27.5,4.0,9.5,0.8,2.4,3.4,4.4,0.4,2.5,2.9,2.5,1.6,0.4,0.2,2.2,12.3,-3.6,0.213,0.538,0.466,0.158,0.057,0.088,93.11,104.6,111.9,3.7,16.101818181818185,12.436363636363637,5.76,0.25263157894736843,18.5,15.5,33.5,19.880597014925375,81.0,15.166666666666666,-6.199999999999999,-6.0,1089.0,5,1.0
147,Jalen Rose,1610612756,2006,PHX,34.0,29,8.5,1.3,3.0,0.7,1.6,0.4,0.4,0.1,0.7,0.8,0.6,0.3,0.2,0.1,0.8,3.7,-1.8,0.184,0.592,0.564,0.119,0.048,0.095,97.54,95.5,103.8,,15.670588235294119,12.705882352941178,1.6941176470588235,0.5333333333333333,12.3,18.5,27.5,16.101818181818185,72.0,10.266666666666667,-8.600000000000001,-19.0,1156.0,6,1.0
164,Chris Childs,1610612761,2000,TOR,33.0,77,24.1,1.8,4.4,0.4,1.4,0.8,0.9,0.3,2.3,2.6,4.6,2.0,0.8,0.2,3.1,4.7,0.5,0.132,0.494,0.451,0.32,0.057,0.078,89.75,96.1,95.0,4.1,7.020746887966805,6.572614107883818,1.3443983402489625,0.3181818181818181,,,,,,4.7,,,1089.0,0,
164,Chris Childs,1610612761,2001,TOR,34.0,69,22.9,1.4,4.3,0.5,1.7,0.8,1.0,0.3,2.0,2.2,5.1,1.8,0.8,0.1,2.6,4.1,-0.5,0.13,0.435,0.383,0.352,0.05,0.076,90.02,96.9,97.9,1.3,6.445414847161572,6.759825327510917,1.572052401746725,0.3953488372093023,4.7,,24.1,7.020746887966805,77.0,4.366666666666666,-0.6000000000000005,-1.2000000000000028,1156.0,1,0.0
164,Chris Childs,1610612751,2002,NJN,35.0,12,8.8,0.5,1.7,0.1,0.5,0.2,0.3,0.3,0.2,0.4,1.3,0.5,0.7,0.1,1.4,1.3,-0.3,0.11,0.352,0.325,0.242,0.024,0.019,98.82,85.8,88.4,,5.3181818181818175,6.954545454545453,1.227272727272727,0.29411764705882354,4.1,4.7,22.9,6.445414847161572,69.0,3.0833333333333335,-2.8,-14.099999999999998,1225.0,2,1.0
165,Hakeem Olajuwon,1610612745,2000,HOU,38.0,58,26.6,4.9,9.8,0.0,0.0,2.1,3.4,2.1,5.3,7.4,1.2,1.4,1.2,1.5,2.4,11.9,1.0,0.215,0.526,0.498,0.082,0.144,0.135,92.69,102.9,100.9,7.1,16.105263157894736,13.26315789473684,4.601503759398496,0.0,,,,,,11.9,,,1444.0,0,
165,Hakeem Olajuwon,1610612761,2001,TOR,39.0,61,22.5,3.2,6.9,0.0,0.0,0.8,1.4,1.6,4.4,6.0,1.1,1.6,1.2,1.5,2.4,7.1,0.4,0.182,0.478,0.464,0.076,0.133,0.101,90.95,100.7,99.5,,11.36,11.040000000000001,2.2399999999999998,0.0,11.9,,26.6,16.105263157894736,58.0,9.233333333333333,-4.800000000000001,-4.100000000000001,1521.0,1,1.0
166,Ron Harper,1610612747,2000,LAL,37.0,47,24.2,2.7,5.8,0.4,1.5,0.7,1.0,1.0,2.6,3.5,2.4,1.3,0.8,0.5,1.5,6.5,1.7,0.137,0.525,0.504,0.144,0.072,0.088,93.35,106.4,102.5,,9.669421487603305,8.62809917355372,1.487603305785124,0.25862068965517243,,,,,,6.5,,,1369.0,0,
168,Chris Mills,1610612744,2000,GSW,31.0,15,32.9,4.7,12.7,0.5,1.7,2.1,2.4,1.6,4.6,6.2,1.2,1.3,0.6,0.3,2.9,12.0,-2.5,0.192,0.435,0.39,0.061,0.087,0.068,97.62,94.8,98.5,7.4,13.130699088145896,13.896656534954406,2.6261398176291793,0.13385826771653545,,,,,,12.0,,,961.0,0,
168,Chris Mills,1610612744,2001,GSW,32.0,66,18.7,2.7,6.5,0.7,1.9,1.3,1.6,0.8,2.1,2.9,1.1,0.8,0.5,0.2,1.8,7.4,-1.8,0.179,0.516,0.473,0.099,0.076,0.086,93.79,99.8,105.1,4.8,14.245989304812834,12.51336898395722,3.080213903743316,0.29230769230769227,12.0,,32.9,13.130699088145896,15.0,9.444444444444445,-4.6,-14.2,1024.0,1,0.0
168,Chris Mills,1610612744,2002,GSW,33.0,21,12.6,1.9,5.0,0.3,1.2,0.8,0.9,0.9,1.5,2.4,1.0,0.5,0.3,0.1,1.4,4.8,0.1,0.202,0.443,0.401,0.138,0.094,0.075,94.81,104.8,103.8,,13.714285714285714,14.285714285714286,2.5714285714285716,0.24,7.4,12.0,18.7,14.245989304812834,66.0,7.466666666666666,-2.6000000000000005,-6.1,1089.0,2,0.0
176,Antonio Harvey,1610612757,2000,POR,30.0,12,6.0,1.1,2.3,0.0,0.0,0.4,0.5,0.4,0.8,1.2,0.3,0.3,0.1,0.5,0.8,2.6,-2.1,0.204,0.506,0.464,0.103,0.092,0.091,97.82,88.2,103.4,1.8,15.600000000000001,13.799999999999999,3.0,0.0,,,,,,2.6,,,900.0,0,
176,Antonio Harvey,1610612760,2001,SEA,31.0,5,9.5,0.8,2.4,0.0,0.0,0.2,0.4,1.0,0.8,1.8,1.0,0.6,0.2,0.6,1.6,1.8,-2.6,0.148,0.349,0.333,0.143,0.086,0.018,92.29,104.4,117.4,1.0,6.821052631578947,9.094736842105263,1.5157894736842106,0.0,2.6,,6.0,15.600000000000001,12.0,2.1555555555555554,-0.8,3.5,961.0,1,1.0
176,Antonio Harvey,1610612737,2002,ATL,32.0,4,8.2,0.5,1.3,0.0,0.0,0.0,0.0,0.3,1.3,1.5,0.0,0.8,0.3,1.0,1.8,1.0,-2.0,0.095,0.4,0.4,0.0,0.09,-0.005,107.39,88.7,94.7,,4.390243902439025,5.707317073170733,0.0,0.0,1.8,2.6,9.5,6.821052631578947,5.0,1.6666666666666667,-0.8,-1.3000000000000007,1024.0,2,1.0
177,Muggsy Bogues,1610612761,2000,TOR,36.0,3,11.2,0.0,0.7,0.0,0.3,0.0,0.0,0.0,1.0,1.0,1.7,1.3,0.7,0.0,1.0,0.0,-5.7,0.078,0.0,0.0,0.294,0.045,0.013,94.88,78.8,103.0,,0.0,2.25,0.0,0.4285714285714286,,,,,,0.0,,,1296.0,0,
178,Olden Polynice,1610612762,2000,UTA,36.0,81,20.0,2.5,5.1,0.0,0.0,0.2,0.8,1.9,2.7,4.7,0.4,1.0,0.3,1.0,3.0,5.3,1.6,0.15,0.484,0.496,0.029,0.129,0.048,90.93,105.0,100.2,,9.540000000000001,9.18,1.44,0.0,,,,,,5.3,,,1296.0,0,
178,Olden Polynice,1610612746,2003,LAC,39.0,2,5.5,0.0,0.0,0.0,0.0,0.0,0.0,0.5,0.5,1.0,0.5,2.0,0.5,0.0,1.0,0.0,0.5,0.174,0.0,0.0,0.143,0.0,-0.109,96.0,77.3,72.7,,0.0,0.0,0.0,,,,,,,0.0,,,1521.0,1,
179,Bryant Stith,1610612738,2000,BOS,30.0,78,32.1,3.1,7.8,1.2,3.1,2.2,2.7,0.8,2.8,3.6,2.2,1.2,1.2,0.2,2.3,9.7,-1.6,0.139,0.538,0.475,0.111,0.058,0.078,94.78,98.5,101.2,4.2,10.878504672897195,8.747663551401867,3.02803738317757,0.39743589743589747,,,,,,9.7,,,900.0,0,
179,Bryant Stith,1610612739,2001,CLE,31.0,50,13.3,1.4,3.8,0.5,1.4,0.9,1.0,0.4,1.3,1.7,0.8,0.6,0.6,0.1,0.8,4.2,-2.3,0.163,0.493,0.436,0.112,0.065,0.079,92.06,95.2,104.4,,11.368421052631579,10.285714285714285,2.706766917293233,0.3684210526315789,9.7,,32.1,10.878504672897195,78.0,6.644444444444444,-5.499999999999999,-18.8,961.0,1,1.0
180,John Crotty,1610612762,2000,UTA,31.0,31,8.5,0.7,2.1,0.1,0.2,0.5,0.6,0.4,0.5,0.9,1.1,0.6,0.2,0.0,1.1,2.1,0.2,0.155,0.443,0.369,0.211,0.056,0.042,93.1,99.6,97.1,6.9,8.894117647058824,8.894117647058824,2.541176470588235,0.09523809523809523,,,,,,2.1,,,961.0,0,
180,John Crotty,1610612762,2001,UTA,32.0,41,19.5,2.4,5.1,0.8,1.7,1.4,1.6,0.4,1.4,1.8,3.4,1.2,0.5,0.0,1.9,6.9,1.2,0.158,0.599,0.546,0.313,0.047,0.115,92.58,102.1,99.5,3.4,12.73846153846154,9.415384615384614,2.953846153846154,0.33333333333333337,2.1,,8.5,8.894117647058824,31.0,4.766666666666667,4.800000000000001,11.0,1024.0,1,0.0
180,John Crotty,1610612743,2002,DEN,33.0,12,15.0,1.2,3.4,0.3,1.1,0.8,1.3,0.1,1.2,1.3,2.4,0.8,0.3,0.0,1.3,3.4,-4.0,0.141,0.431,0.39,0.322,0.04,0.062,91.32,85.5,102.1,,8.16,8.16,3.12,0.3235294117647059,6.9,2.1,19.5,12.73846153846154,41.0,4.241666666666667,-3.5000000000000004,-4.5,1089.0,2,1.0
182,Billy Owens,1610612765,2000,DET,32.0,45,17.7,2.0,5.1,0.1,0.4,0.4,0.9,1.9,2.7,4.6,1.2,0.9,0.7,0.3,2.1,4.4,-0.4,0.147,0.4,0.389,0.108,0.115,0.069,98.72,95.5,97.1,,8.949152542372882,10.372881355932204,1.8305084745762712,0.07843137254901962,,,,,,4.4,,,1024.0,0,
185,Chris Webber,1610612758,2000,SAC,28.0,70,40.5,11.2,23.4,0.0,0.4,4.6,6.6,2.6,8.5,11.1,4.2,2.8,1.3,1.7,3.2,27.1,5.3,0.311,0.516,0.481,0.202,0.131,0.169,96.77,103.8,97.4,24.5,24.08888888888889,20.799999999999997,5.866666666666666,0.017094017094017096,,,,,,27.1,,,784.0,0,
185,Chris Webber,1610612758,2001,SAC,29.0,54,38.4,9.9,19.9,0.1,0.4,4.7,6.3,2.8,7.3,10.1,4.8,2.9,1.7,1.4,3.4,24.5,7.6,0.288,0.54,0.497,0.21,0.129,0.158,97.5,110.3,100.4,23.0,22.96875,18.65625,5.90625,0.020100502512562818,27.1,,40.5,24.08888888888889,70.0,25.655555555555555,-2.6000000000000014,-2.1000000000000014,841.0,1,0.0
185,Chris Webber,1610612758,2002,SAC,30.0,67,39.1,9.9,21.4,0.1,0.3,3.2,5.3,2.4,8.1,10.5,5.4,3.2,1.6,1.3,3.0,23.0,6.0,0.3,0.485,0.463,0.238,0.129,0.147,97.86,105.3,97.8,18.7,21.176470588235293,19.703324808184142,4.879795396419437,0.014018691588785047,24.5,27.1,38.4,22.96875,54.0,24.525000000000002,-1.5,0.7000000000000028,900.0,2,0.0
185,Chris Webber,1610612758,2003,SAC,31.0,23,36.2,7.6,18.3,0.0,0.2,3.5,5.0,2.1,6.6,8.7,4.6,2.6,1.3,0.9,3.3,18.7,-0.5,0.286,0.456,0.414,0.227,0.119,0.112,95.49,101.9,102.7,19.5,18.596685082872927,18.19889502762431,4.972375690607734,0.01092896174863388,23.0,24.5,39.1,21.176470588235293,67.0,21.583333333333332,-4.300000000000001,-2.8999999999999986,961.0,3,0.0
185,Chris Webber,1610612755,2004,PHI,32.0,67,35.4,8.3,19.1,0.2,0.7,2.7,3.4,1.9,7.2,9.1,4.7,2.7,1.4,0.8,3.2,19.5,0.8,0.292,0.472,0.438,0.231,0.129,0.13,96.35,106.1,105.3,20.2,19.83050847457627,19.423728813559325,3.457627118644068,0.03664921465968586,18.7,23.0,36.2,18.596685082872927,23.0,20.108333333333334,0.8000000000000007,-0.8000000000000043,1024.0,4,1.0
185,Chris Webber,1610612755,2005,PHI,33.0,75,38.6,8.2,19.0,0.3,1.0,3.5,4.6,2.5,7.4,9.9,3.4,2.4,1.4,0.8,2.9,20.2,-1.7,0.271,0.482,0.441,0.157,0.135,0.125,94.66,105.3,107.8,11.2,18.83937823834197,17.72020725388601,4.290155440414508,0.05263157894736842,19.5,18.7,35.4,19.83050847457627,67.0,19.591666666666665,0.6999999999999993,3.200000000000003,1089.0,5,0.0
185,Chris Webber,1610612765,2006,DET,34.0,61,29.8,4.7,10.5,0.1,0.2,1.7,2.6,2.0,5.1,7.2,3.1,1.8,1.0,0.7,2.3,11.2,1.7,0.213,0.482,0.455,0.17,0.134,0.109,89.07,106.8,104.4,3.9,13.530201342281877,12.684563758389261,3.140939597315436,0.01904761904761905,20.2,19.5,38.6,18.83937823834197,75.0,16.275000000000002,-9.0,-8.8,1156.0,6,1.0
185,Chris Webber,1610612744,2007,GSW,35.0,9,14.0,1.7,3.4,0.0,0.0,0.6,1.3,0.2,3.3,3.6,2.0,1.2,0.4,0.7,1.9,3.9,-2.3,0.162,0.482,0.484,0.188,0.131,0.077,106.43,100.0,106.0,,10.028571428571428,8.742857142857142,3.342857142857143,0.0,11.2,20.2,29.8,13.530201342281877,61.0,10.408333333333333,-7.299999999999999,-15.8,1225.0,7,1.0
190,Duane Causwell,1610612748,2000,MIA,33.0,31,12.4,1.0,2.7,0.0,0.0,0.4,0.8,0.7,1.9,2.7,0.2,0.7,0.3,0.6,2.2,2.5,-2.5,0.15,0.396,0.376,0.023,0.12,0.013,88.99,91.3,102.3,,7.258064516129032,7.838709677419355,2.32258064516129,0.0,,,,,,2.5,,,1089.0,0,
193,Anthony Mason,1610612748,2000,MIA,34.0,80,40.7,5.8,11.9,0.0,0.0,4.6,5.9,2.1,7.5,9.6,3.1,2.2,1.0,0.3,2.9,16.1,1.4,0.198,0.555,0.482,0.144,0.126,0.146,88.75,98.9,97.4,9.6,14.24078624078624,10.525798525798525,5.218673218673219,0.0,,,,,,16.1,,,1156.0,0,
193,Anthony Mason,1610612749,2001,MIL,35.0,82,38.3,3.9,7.6,0.0,0.0,1.9,2.7,1.5,6.4,7.9,4.2,1.6,0.7,0.3,2.3,9.6,0.2,0.126,0.544,0.506,0.162,0.106,0.1,92.14,106.6,106.6,7.2,9.023498694516972,7.143603133159269,2.5378590078328984,0.0,16.1,,40.7,14.24078624078624,80.0,12.488888888888889,-6.500000000000002,-2.4000000000000057,1225.0,1,1.0
193,Anthony Mason,1610612749,2002,MIL,36.0,65,32.6,2.9,6.0,0.0,0.0,1.3,1.8,1.4,5.0,6.4,3.2,1.2,0.5,0.2,2.3,7.2,-2.4,0.116,0.524,0.486,0.15,0.104,0.085,92.19,105.4,109.1,,7.950920245398773,6.625766871165644,1.9877300613496933,0.0,9.6,16.1,38.3,9.023498694516972,82.0,10.225000000000001,-2.3999999999999995,-5.699999999999996,1296.0,2,0.0
197,Scott Burrell,1610612766,2000,CHH,30.0,4,10.0,1.8,3.8,0.5,1.5,0.3,1.0,0.3,0.5,0.8,0.3,0.0,0.8,0.0,2.0,4.3,-2.0,0.189,0.507,0.533,0.048,0.04,0.035,97.32,90.2,102.5,,15.48,13.68,3.6,0.39473684210526316,,,,,,4.3,,,900.0,0,
198,Danny Ferry,1610612759,2000,SAS,34.0,80,21.1,2.2,4.7,0.9,2.0,0.3,0.4,0.7,2.1,2.8,0.9,0.6,0.4,0.3,2.1,5.6,4.9,0.118,0.577,0.568,0.066,0.067,0.064,92.71,104.7,93.1,4.6,9.554502369668246,8.018957345971565,0.6824644549763034,0.425531914893617,,,,,,5.6,,,1156.0,0,
198,Danny Ferry,1610612759,2001,SAS,35.0,50,16.0,1.5,3.5,0.9,2.0,0.7,0.7,0.3,1.5,1.8,1.0,0.4,0.3,0.2,1.4,4.6,2.7,0.12,0.594,0.551,0.099,0.056,0.081,91.46,103.2,96.2,1.8,10.35,7.875,1.575,0.5714285714285714,5.6,,21.1,9.554502369668246,80.0,5.044444444444444,-1.0,-5.100000000000001,1225.0,1,0.0
198,Danny Ferry,1610612759,2002,SAS,36.0,65,9.2,0.7,1.9,0.3,0.9,0.2,0.2,0.3,0.8,1.2,0.3,0.4,0.1,0.1,0.8,1.8,0.3,0.114,0.459,0.44,0.055,0.064,0.03,95.84,97.3,96.6,,7.043478260869565,7.434782608695652,0.7826086956521741,0.4736842105263158,4.6,5.6,16.0,10.35,50.0,3.683333333333333,-2.8,-6.800000000000001,1296.0,2,0.0
201,Chris Dudley,1610612756,2000,PHX,36.0,53,11.5,0.5,1.4,0.0,0.0,0.3,0.7,1.2,2.2,3.5,0.3,0.5,0.3,0.5,2.1,1.4,0.7,0.084,0.405,0.397,0.04,0.147,0.035,93.37,98.4,93.9,1.1,4.3826086956521735,4.3826086956521735,2.1913043478260867,0.0,,,,,,1.4,,,1296.0,0,
201,Chris Dudley,1610612757,2001,POR,37.0,43,7.6,0.5,1.2,0.0,0.0,0.2,0.3,0.6,1.2,1.9,0.3,0.3,0.1,0.3,1.0,1.1,0.3,0.094,0.424,0.4,0.058,0.123,0.042,91.98,101.3,98.7,0.0,5.210526315789474,5.684210526315789,1.4210526315789473,0.0,1.4,,11.5,4.3826086956521735,53.0,1.2333333333333334,-0.2999999999999998,-3.9000000000000004,1369.0,1,1.0
201,Chris Dudley,1610612757,2002,POR,38.0,3,3.5,0.0,0.3,0.0,0.0,0.0,0.0,0.7,0.0,0.7,0.0,0.0,0.0,0.0,1.0,0.0,-4.0,0.043,0.0,0.0,0.0,0.0,-0.857,87.22,58.8,104.8,,0.0,3.085714285714286,0.0,0.0,1.1,1.4,7.6,5.210526315789474,43.0,0.7166666666666667,-1.1,-4.1,1444.0,2,0.0
202,Gary Grant,1610612757,2000,POR,36.0,4,4.3,1.3,1.8,0.0,0.0,0.0,0.0,0.0,0.0,0.0,0.3,0.0,0.0,0.0,0.3,2.5,1.0,0.179,0.714,0.714,0.1,0.0,0.147,99.36,91.9,88.2,,20.930232558139537,15.069767441860465,0.0,0.0,,,,,,2.5,,,1296.0,0,
208,Sam Cassell,1610612749,2000,MIL,31.0,76,35.7,7.1,14.9,0.4,1.3,3.6,4.3,0.6,3.2,3.8,7.6,2.9,1.2,0.1,2.8,18.2,2.2,0.242,0.542,0.488,0.346,0.053,0.134,96.01,107.1,103.3,19.7,18.352941176470587,15.025210084033612,4.336134453781512,0.087248322147651,,,,,,18.2,,,961.0,0,
208,Sam Cassell,1610612749,2001,MIL,32.0,74,35.2,7.5,16.2,1.0,2.8,3.8,4.4,0.7,3.5,4.2,6.7,2.4,1.2,0.2,2.8,19.7,1.5,0.266,0.545,0.492,0.324,0.061,0.14,93.4,106.9,104.4,19.7,20.14772727272727,16.568181818181817,4.5,0.1728395061728395,18.2,,35.7,18.352941176470587,76.0,19.033333333333335,1.5,-0.5,1024.0,1,0.0
208,Sam Cassell,1610612749,2002,MIL,33.0,78,34.6,7.0,14.9,0.8,2.1,4.9,5.7,0.7,3.7,4.4,5.8,2.3,1.1,0.2,2.8,19.7,-1.5,0.258,0.565,0.495,0.293,0.065,0.141,93.62,106.3,108.5,19.8,20.497109826589593,15.502890173410403,5.930635838150289,0.14093959731543623,19.7,18.2,35.2,20.14772727272727,74.0,19.325,0.0,-0.6000000000000014,1089.0,2,0.0
208,Sam Cassell,1610612750,2003,MIN,34.0,81,35.2,7.7,15.7,0.9,2.3,3.6,4.1,0.5,2.8,3.3,7.3,2.7,1.3,0.2,3.0,19.8,6.6,0.264,0.566,0.517,0.354,0.048,0.151,91.16,107.1,97.3,13.5,20.25,16.05681818181818,4.1931818181818175,0.1464968152866242,19.7,19.7,34.6,20.497109826589593,78.0,19.741666666666667,0.10000000000000142,0.6000000000000014,1156.0,3,1.0
208,Sam Cassell,1610612750,2004,MIN,35.0,59,25.8,5.4,11.6,0.5,1.7,2.3,2.6,0.4,2.2,2.7,5.1,1.8,0.6,0.2,2.7,13.5,2.2,0.255,0.529,0.484,0.336,0.051,0.121,92.51,106.8,102.8,17.2,18.83720930232558,16.186046511627907,3.627906976744186,0.14655172413793102,19.8,19.7,35.2,20.25,81.0,17.15,-6.300000000000001,-9.400000000000002,1225.0,4,0.0
208,Sam Cassell,1610612746,2005,LAC,36.0,78,34.0,6.3,14.3,0.9,2.4,3.7,4.3,0.5,3.2,3.7,6.3,2.2,0.9,0.1,2.9,17.2,3.0,0.244,0.534,0.475,0.31,0.055,0.126,94.08,106.0,102.1,12.3,18.211764705882352,15.141176470588235,4.552941176470588,0.1678321678321678,13.5,19.8,25.8,18.83720930232558,59.0,16.616666666666667,3.6999999999999993,8.2,1296.0,5,1.0
208,Sam Cassell,1610612746,2006,LAC,37.0,58,24.3,4.5,10.8,0.6,1.9,2.8,3.1,0.5,2.4,2.9,4.7,1.7,0.5,0.1,2.2,12.3,1.6,0.253,0.506,0.443,0.34,0.06,0.125,93.79,103.9,101.8,11.2,18.22222222222222,16.0,4.592592592592593,0.1759259259259259,17.2,13.5,34.0,18.211764705882352,78.0,14.233333333333334,-4.899999999999999,-9.7,1369.0,6,0.0
208,Sam Cassell,1610612738,2007,BOS,38.0,55,23.2,4.2,9.7,0.4,1.4,2.3,2.6,0.3,2.2,2.5,3.9,1.8,0.7,0.1,1.8,11.2,-1.3,0.246,0.517,0.46,0.298,0.054,0.112,94.11,102.2,105.6,,17.379310344827584,15.051724137931034,4.0344827586206895,0.1443298969072165,12.3,17.2,24.3,18.22222222222222,58.0,13.066666666666668,-1.1000000000000014,-1.1000000000000014,1444.0,7,1.0
209,Dell Curry,1610612761,2000,TOR,37.0,71,13.5,2.3,5.4,0.9,2.0,0.6,0.7,0.2,1.0,1.2,1.1,0.5,0.4,0.1,0.9,6.0,-0.6,0.2,0.53,0.505,0.135,0.044,0.093,94.08,101.3,104.7,6.4,16.0,14.4,1.8666666666666667,0.37037037037037035,,,,,,6.0,,,1369.0,0,
209,Dell Curry,1610612761,2001,TOR,38.0,56,15.8,2.5,6.2,0.8,2.3,0.6,0.7,0.4,1.0,1.4,1.1,0.7,0.4,0.1,0.9,6.4,0.3,0.203,0.495,0.471,0.12,0.047,0.085,91.88,99.3,99.1,,14.582278481012658,14.126582278481012,1.5949367088607593,0.3709677419354838,6.0,,13.5,16.0,71.0,6.222222222222222,0.40000000000000036,2.3000000000000007,1444.0,1,0.0
210,Terrell Brandon,1610612750,2000,MIN,31.0,78,36.2,6.6,14.5,0.4,1.2,2.5,2.9,0.8,3.1,3.8,7.5,2.0,2.1,0.3,1.8,16.0,1.5,0.217,0.507,0.465,0.326,0.054,0.137,93.62,104.3,101.9,12.4,15.91160220994475,14.41988950276243,2.8839779005524857,0.08275862068965517,,,,,,16.0,,,961.0,0,
210,Terrell Brandon,1610612750,2001,MIN,32.0,32,30.1,4.8,11.4,0.1,0.7,2.6,2.6,0.5,2.4,2.9,8.3,1.3,1.6,0.2,1.5,12.4,4.3,0.196,0.494,0.43,0.387,0.047,0.149,95.06,107.4,100.4,,14.830564784053156,13.634551495016611,3.1096345514950166,0.06140350877192982,16.0,,36.2,15.91160220994475,78.0,14.0,-3.5999999999999996,-6.100000000000001,1024.0,1,0.0
213,Antonio Davis,1610612761,2000,TOR,32.0,78,35.0,4.8,11.1,0.0,0.0,4.1,5.4,3.5,6.6,10.1,1.4,1.7,0.3,1.9,2.9,13.7,3.2,0.194,0.508,0.433,0.062,0.142,0.109,92.23,104.8,99.9,14.5,14.09142857142857,11.417142857142856,5.554285714285715,0.0,,,,,,13.7,,,1024.0,0,
213,Antonio Davis,1610612761,2001,TOR,33.0,77,38.7,5.3,12.5,0.0,0.0,3.8,4.6,3.3,6.3,9.6,2.0,2.1,0.7,1.1,2.9,14.5,-0.1,0.195,0.497,0.426,0.087,0.125,0.11,90.03,101.4,101.1,13.9,13.488372093023255,11.627906976744185,4.27906976744186,0.0,13.7,,35.0,14.09142857142857,78.0,14.144444444444444,0.8000000000000007,3.700000000000003,1089.0,1,0.0
213,Antonio Davis,1610612761,2002,TOR,34.0,53,35.8,4.9,12.1,0.0,0.0,4.1,5.3,2.5,5.8,8.2,2.5,2.2,0.4,1.2,2.8,13.9,-2.1,0.214,0.483,0.407,0.115,0.115,0.098,91.14,101.7,104.1,8.9,13.977653631284918,12.167597765363128,5.329608938547486,0.0,14.5,13.7,38.7,13.488372093023255,77.0,14.049999999999999,-0.5999999999999996,-2.9000000000000057,1156.0,2,0.0
213,Antonio Davis,1610612741,2003,CHI,35.0,80,32.2,3.3,8.3,0.0,0.0,2.2,2.9,2.6,5.8,8.4,1.7,1.4,0.5,0.8,2.6,8.9,-3.9,0.155,0.465,0.403,0.093,0.127,0.094,91.2,94.2,100.0,7.0,9.95031055900621,9.279503105590061,3.24223602484472,0.0,13.9,14.5,35.8,13.977653631284918,53.0,11.966666666666667,-5.0,-3.5999999999999943,1225.0,3,1.0
213,Antonio Davis,1610612741,2004,CHI,36.0,72,25.6,2.7,5.8,0.0,0.0,1.6,2.1,2.1,3.8,5.9,1.1,1.3,0.4,0.6,2.0,7.0,0.1,0.143,0.516,0.461,0.071,0.114,0.089,93.08,98.3,97.3,4.9,9.84375,8.156249999999998,2.953125,0.0,8.9,13.9,32.2,9.95031055900621,80.0,9.358333333333333,-1.9000000000000004,-6.600000000000001,1296.0,4,0.0
213,Antonio Davis,1610612761,2005,TOR,37.0,44,21.4,1.9,4.3,0.0,0.0,1.2,1.8,2.0,2.7,4.7,0.5,1.2,0.5,0.2,2.8,4.9,-4.4,0.133,0.479,0.432,0.035,0.12,0.041,91.49,100.1,110.2,,8.242990654205608,7.233644859813084,3.0280373831775704,0.0,7.0,8.9,25.6,9.84375,72.0,6.6000000000000005,-2.0999999999999996,-4.200000000000003,1369.0,5,1.0
216,Brian Shaw,1610612747,2000,LAL,35.0,80,22.9,2.1,5.1,0.5,1.7,0.6,0.8,0.6,3.2,3.8,3.2,1.2,0.6,0.3,2.0,5.3,0.8,0.13,0.479,0.45,0.206,0.083,0.088,93.95,104.7,103.3,2.9,8.331877729257643,8.017467248908297,1.2576419213973802,0.33333333333333337,,,,,,5.3,,,1225.0,0,
216,Brian Shaw,1610612747,2001,LAL,36.0,58,10.8,1.1,3.0,0.5,1.5,0.3,0.4,0.3,1.6,1.9,1.5,0.6,0.4,0.1,0.7,2.9,1.7,0.15,0.458,0.436,0.207,0.084,0.098,95.41,105.9,97.5,3.5,9.666666666666666,9.999999999999998,1.3333333333333333,0.5,5.3,,22.9,8.331877729257643,80.0,3.966666666666667,-2.4,-12.099999999999998,1296.0,1,0.0
216,Brian Shaw,1610612747,2002,LAL,37.0,72,12.5,1.4,3.6,0.5,1.5,0.1,0.2,0.3,1.4,1.7,1.4,0.8,0.4,0.2,0.9,3.5,-0.9,0.155,0.467,0.46,0.189,0.064,0.083,95.55,95.5,100.2,,10.080000000000002,10.368000000000002,0.5760000000000001,0.41666666666666663,2.9,5.3,10.8,9.666666666666666,58.0,3.75,0.6000000000000001,1.6999999999999993,1369.0,2,0.0
219,Vinny Del Negro,1610612756,2000,PHX,34.0,65,14.1,1.6,3.6,0.0,0.2,0.6,0.7,0.2,1.1,1.3,1.9,0.5,0.4,0.0,1.2,3.9,-0.4,0.13,0.501,0.455,0.213,0.045,0.083,96.34,99.0,101.4,1.0,9.957446808510639,9.191489361702128,1.7872340425531914,0.05555555555555556,,,,,,3.9,,,1156.0,0,
219,Vinny Del Negro,1610612756,2001,PHX,35.0,2,2.6,0.5,2.0,0.0,0.0,0.0,0.0,0.0,0.0,0.0,1.0,0.0,0.0,0.0,0.0,1.0,-0.5,0.364,0.25,0.25,0.667,0.0,0.042,92.52,120.0,130.0,,13.846153846153845,27.69230769230769,0.0,0.0,3.9,,14.1,9.957446808510639,65.0,2.288888888888889,-2.9,-11.5,1225.0,1,0.0
221,Clar. Weatherspoon,1610612739,2000,CLE,30.0,82,33.9,4.2,8.4,0.0,0.0,2.8,3.5,2.7,7.0,9.7,1.3,1.4,1.0,1.3,2.1,11.3,-3.3,0.151,0.563,0.501,0.061,0.144,0.132,92.81,98.9,103.8,8.8,12.000000000000002,8.920353982300886,3.7168141592920354,0.0,,,,,,11.3,,,900.0,0,
221,Clar. Weatherspoon,1610612752,2001,NYK,31.0,56,30.8,3.4,8.1,0.0,0.0,2.1,2.6,2.7,5.6,8.2,1.1,0.8,0.7,0.9,2.4,8.8,-3.3,0.151,0.478,0.418,0.058,0.136,0.092,91.83,100.9,106.4,6.6,10.285714285714286,9.467532467532468,3.038961038961039,0.0,11.3,,33.9,12.000000000000002,82.0,9.911111111111111,-2.5,-3.099999999999998,961.0,1,1.0
221,Clar. Weatherspoon,1610612752,2002,NYK,32.0,79,25.6,2.4,5.2,0.0,0.0,1.9,2.5,2.7,4.9,7.6,0.9,0.8,0.9,0.5,2.2,6.6,-1.2,0.127,0.522,0.449,0.053,0.151,0.103,92.44,101.5,103.3,5.0,9.281249999999998,7.3125,3.515625,0.0,8.8,11.3,30.8,10.285714285714286,56.0,8.508333333333335,-2.200000000000001,-5.199999999999999,1024.0,2,0.0
221,Clar. Weatherspoon,1610612745,2003,HOU,33.0,52,16.8,2.0,4.1,0.0,0.0,1.0,1.4,1.4,2.5,3.9,0.6,0.7,0.6,0.3,1.4,5.0,-1.6,0.148,0.538,0.493,0.063,0.123,0.103,91.24,95.1,99.0,3.1,10.714285714285714,8.785714285714285,3.0,0.0,6.6,8.8,25.6,9.281249999999998,79.0,6.483333333333333,-1.5999999999999996,-8.8,1089.0,3,1.0
221,Clar. Weatherspoon,1610612745,2004,HOU,34.0,40,13.1,1.2,2.9,0.0,0.0,0.7,0.9,0.9,2.2,3.1,0.4,0.4,0.2,0.2,1.9,3.1,1.4,0.133,0.475,0.412,0.051,0.123,0.058,90.0,105.2,99.3,,8.51908396946565,7.969465648854962,2.4732824427480917,0.0,5.0,6.6,16.8,10.714285714285714,52.0,4.608333333333333,-1.9,-3.700000000000001,1156.0,4,0.0
223,Bill Curley,1610612744,2000,GSW,29.0,20,9.6,1.3,2.4,0.1,0.1,0.6,1.0,1.1,0.8,1.9,0.2,0.8,0.4,0.5,2.3,3.2,-1.8,0.155,0.569,0.543,0.028,0.098,0.026,97.71,91.3,101.0,,12.000000000000002,9.0,3.75,0.04166666666666667,,,,,,3.2,,,841.0,0,
224,Eddie Jones,1610612748,2000,MIA,29.0,63,36.1,6.2,13.8,1.4,3.8,3.6,4.3,1.2,3.4,4.6,2.7,2.1,1.7,0.9,2.9,17.4,2.1,0.237,0.553,0.497,0.15,0.069,0.131,88.99,99.9,96.8,18.3,17.35180055401662,13.761772853185596,4.28808864265928,0.27536231884057966,,,,,,17.4,,,841.0,0,
224,Eddie Jones,1610612748,2001,MIA,30.0,81,39.0,6.4,14.8,1.8,4.7,3.7,4.4,0.8,3.9,4.7,3.2,1.8,1.4,1.0,3.2,18.3,0.9,0.221,0.546,0.494,0.152,0.062,0.127,89.0,98.4,97.1,18.5,16.892307692307693,13.661538461538463,4.061538461538462,0.31756756756756754,17.4,,36.1,17.35180055401662,63.0,17.9,0.9000000000000021,2.8999999999999986,900.0,1,0.0
224,Eddie Jones,1610612748,2002,MIA,31.0,47,38.0,6.2,14.6,2.1,5.1,4.0,4.9,0.7,4.1,4.8,3.7,1.8,1.4,0.7,2.9,18.5,-2.1,0.225,0.551,0.494,0.184,0.065,0.137,89.0,97.1,100.3,17.3,17.526315789473685,13.83157894736842,4.642105263157895,0.3493150684931507,18.3,17.4,39.0,16.892307692307693,81.0,18.15833333333333,0.1999999999999993,-1.0,961.0,2,0.0
224,Eddie Jones,1610612748,2003,MIA,32.0,81,37.0,5.8,14.3,2.2,5.9,3.4,4.1,0.5,3.3,3.8,3.2,1.6,1.1,0.4,2.8,17.3,1.0,0.219,0.538,0.486,0.16,0.053,0.112,89.83,101.1,99.6,12.7,16.832432432432434,13.913513513513513,3.989189189189189,0.4125874125874126,18.5,18.3,38.0,17.526315789473685,47.0,17.95,-1.1999999999999993,-1.0,1024.0,3,0.0
224,Eddie Jones,1610612748,2004,MIA,33.0,80,35.5,4.4,10.3,1.8,4.8,2.2,2.7,0.5,4.6,5.1,2.7,1.2,1.1,0.5,3.1,12.7,6.1,0.161,0.556,0.515,0.112,0.073,0.095,92.82,109.6,100.8,11.8,12.878873239436619,10.445070422535212,2.738028169014085,0.4660194174757281,17.3,18.5,37.0,16.832432432432434,81.0,15.683333333333332,-4.600000000000001,-1.5,1089.0,4,0.0
224,Eddie Jones,1610612763,2005,MEM,34.0,75,32.5,3.9,9.6,1.8,5.0,2.2,2.9,0.5,3.3,3.7,2.4,1.2,1.7,0.4,2.7,11.8,4.2,0.178,0.542,0.497,0.124,0.062,0.097,87.77,107.0,99.6,7.7,13.07076923076923,10.633846153846154,3.212307692307692,0.5208333333333334,12.7,17.3,35.5,12.878873239436619,80.0,13.475,-0.8999999999999986,-3.0,1156.0,5,1.0
224,Eddie Jones,1610612748,2006,MIA,35.0,64,24.9,2.8,6.6,1.2,3.5,0.9,1.2,0.5,2.5,3.0,1.7,0.7,1.1,0.2,1.9,7.7,-0.7,0.146,0.542,0.514,0.111,0.063,0.086,92.21,101.1,102.6,3.7,11.132530120481928,9.542168674698797,1.7349397590361446,0.5303030303030303,11.8,12.7,32.5,13.07076923076923,75.0,10.316666666666666,-4.1000000000000005,-7.600000000000001,1225.0,6,1.0
224,Eddie Jones,1610612742,2007,DAL,36.0,47,19.6,1.4,3.8,0.7,2.5,0.2,0.3,0.4,2.4,2.8,1.5,0.6,0.6,0.2,1.5,3.7,2.4,0.107,0.473,0.461,0.105,0.076,0.059,91.67,107.6,101.3,,6.795918367346938,6.979591836734692,0.5510204081632653,0.6578947368421053,7.7,11.8,24.9,11.132530120481928,64.0,7.058333333333334,-4.0,-5.299999999999997,1296.0,7,1.0
228,Adam Keefe,1610612744,2000,GSW,31.0,67,12.6,1.0,2.4,0.0,0.0,0.6,0.9,1.3,1.8,3.1,0.5,0.6,0.4,0.3,1.5,2.5,-2.6,0.114,0.45,0.406,0.066,0.12,0.056,95.19,93.9,104.0,,7.142857142857143,6.857142857142857,2.5714285714285716,0.0,,,,,,2.5,,,961.0,0,
236,Kevin Edwards,1610612763,2000,VAN,35.0,46,13.8,1.2,3.7,0.1,0.4,0.9,1.2,0.5,1.3,1.8,1.1,0.8,0.6,0.2,1.0,3.5,-0.8,0.159,0.414,0.344,0.126,0.064,0.055,96.78,96.8,98.4,,9.130434782608694,9.652173913043478,3.1304347826086953,0.10810810810810811,,,,,,3.5,,,1225.0,0,
238,Tyrone Hill,1610612755,2000,PHI,33.0,76,31.1,3.7,7.7,0.0,0.0,2.3,3.6,3.1,5.9,9.0,0.6,1.7,0.5,0.4,3.2,9.6,2.4,0.159,0.515,0.474,0.033,0.147,0.088,91.78,101.3,96.8,8.0,11.112540192926044,8.913183279742766,4.167202572347267,0.0,,,,,,9.6,,,1089.0,0,
238,Tyrone Hill,1610612739,2001,CLE,34.0,26,31.1,2.7,7.0,0.0,0.0,2.6,4.0,3.0,7.5,10.5,0.9,1.8,0.7,0.5,3.9,8.0,-1.6,0.152,0.46,0.39,0.043,0.175,0.071,92.0,105.2,107.9,5.6,9.260450160771704,8.102893890675242,4.630225080385852,0.0,9.6,,31.1,11.112540192926044,76.0,8.711111111111112,-1.5999999999999996,0.0,1156.0,1,1.0
238,Tyrone Hill,1610612755,2002,PHI,35.0,56,24.2,2.3,5.5,0.0,0.0,1.0,1.4,2.3,4.7,7.0,0.7,1.2,0.8,0.5,3.1,5.6,-3.4,0.131,0.457,0.422,0.049,0.147,0.071,94.64,96.3,102.5,1.8,8.330578512396693,8.181818181818183,2.0826446280991733,0.0,8.0,9.6,31.1,9.260450160771704,26.0,7.3999999999999995,-2.4000000000000004,-6.900000000000002,1225.0,2,1.0
238,Tyrone Hill,1610612748,2003,MIA,36.0,5,7.5,0.6,1.0,0.0,0.0,0.6,0.8,1.0,0.6,1.6,0.0,0.4,0.0,0.2,2.0,1.8,-3.2,0.103,0.666,0.6,0.0,0.105,0.0,93.97,85.1,109.7,,8.64,4.8,3.8400000000000003,0.0,5.6,8.0,24.2,8.330578512396693,56.0,4.616666666666666,-3.8,-16.7,1296.0,3,1.0
239,Darrick Martin,1610612758,2000,SAC,30.0,31,5.6,0.9,2.5,0.5,0.9,1.0,1.1,0.1,0.5,0.5,0.5,0.3,0.2,0.0,0.9,3.3,0.0,0.251,0.563,0.474,0.152,0.04,0.088,98.71,98.6,99.7,0.3,21.214285714285715,16.071428571428573,7.071428571428572,0.36,,,,,,3.3,,,900.0,0,
239,Darrick Martin,1610612742,2001,DAL,31.0,3,7.5,0.0,3.3,0.0,0.7,0.3,0.7,0.0,0.3,0.3,1.0,0.3,0.7,0.0,1.3,0.3,-7.7,0.231,0.046,0.0,0.25,0.0,-0.136,97.44,71.1,119.6,,1.44,15.84,3.3599999999999994,0.21212121212121213,3.3,,5.6,21.214285714285715,31.0,1.6333333333333333,-3.0,1.9000000000000004,961.0,1,1.0
239,Darrick Martin,1610612750,2003,MIN,33.0,16,10.9,1.3,4.2,0.4,1.6,0.6,0.6,0.1,0.3,0.4,1.4,0.4,0.1,0.1,1.4,3.4,0.9,0.197,0.388,0.343,0.258,0.019,0.023,93.09,89.6,85.5,3.8,11.229357798165136,13.871559633027523,1.9816513761467889,0.38095238095238093,,0.3,,,,2.2375,,,1089.0,2,
239,Darrick Martin,1610612746,2004,LAC,34.0,11,17.2,1.5,4.5,0.5,1.6,0.5,0.7,0.3,0.6,0.9,2.5,0.5,0.5,0.0,1.7,3.8,1.3,0.148,0.392,0.37,0.235,0.027,0.041,88.36,103.7,100.3,2.6,7.953488372093023,9.418604651162791,1.4651162790697674,0.35555555555555557,3.4,,10.9,11.229357798165136,16.0,3.6222222222222222,0.3999999999999999,6.299999999999999,1156.0,3,1.0
239,Darrick Martin,1610612761,2005,TOR,35.0,40,8.5,0.9,2.4,0.4,1.0,0.5,0.6,0.1,0.5,0.5,1.4,0.4,0.4,0.0,1.1,2.6,1.3,0.166,0.474,0.433,0.247,0.033,0.063,94.52,111.7,103.1,3.0,11.011764705882353,10.16470588235294,2.541176470588235,0.4166666666666667,3.8,3.4,17.2,7.953488372093023,11.0,3.1999999999999997,-1.1999999999999997,-8.7,1225.0,4,1.0
239,Darrick Martin,1610612761,2006,TOR,36.0,31,7.1,1.1,3.0,0.4,1.2,0.5,0.7,0.1,0.3,0.4,1.4,0.4,0.1,0.0,0.7,3.0,-0.6,0.217,0.455,0.42,0.347,0.026,0.071,100.59,97.2,101.5,1.6,15.211267605633804,15.211267605633804,3.549295774647887,0.39999999999999997,2.6,3.8,8.5,11.011764705882353,40.0,3.0666666666666664,0.3999999999999999,-1.4000000000000004,1296.0,5,0.0
239,Darrick Martin,1610612761,2007,TOR,37.0,17,8.3,0.6,2.5,0.1,0.9,0.3,0.4,0.2,0.2,0.4,1.2,0.1,0.4,0.0,0.7,1.6,2.8,0.146,0.296,0.256,0.21,0.024,0.032,92.18,106.6,89.7,,6.939759036144578,10.843373493975903,1.7349397590361444,0.36,3.0,2.6,7.1,15.211267605633804,31.0,2.316666666666667,-1.4,1.200000000000001,1369.0,6,0.0
243,Aaron McKie,1610612755,2000,PHI,28.0,76,31.5,4.4,9.4,0.7,2.2,2.0,2.6,0.4,3.7,4.1,5.0,2.7,1.4,0.1,2.3,11.6,4.4,0.186,0.549,0.511,0.264,0.066,0.119,93.17,102.7,95.5,12.2,13.257142857142856,10.742857142857142,2.9714285714285715,0.23404255319148937,,,,,,11.6,,,784.0,0,
243,Aaron McKie,1610612755,2001,PHI,29.0,48,30.6,4.6,10.2,1.1,2.7,2.0,2.5,0.5,3.5,4.0,3.7,1.9,1.2,0.3,1.5,12.2,2.4,0.196,0.54,0.501,0.22,0.066,0.128,91.59,98.8,95.3,9.0,14.352941176470587,12.0,2.9411764705882355,0.26470588235294124,11.6,,31.5,13.257142857142856,76.0,11.933333333333334,0.5999999999999996,-0.8999999999999986,841.0,1,0.0
243,Aaron McKie,1610612755,2002,PHI,30.0,80,29.7,3.6,8.3,0.5,1.4,1.4,1.7,0.8,3.6,4.4,3.5,1.4,1.6,0.1,2.2,9.0,2.6,0.155,0.497,0.457,0.185,0.076,0.103,94.5,102.5,97.7,9.2,10.90909090909091,10.06060606060606,2.0606060606060606,0.1686746987951807,12.2,11.6,30.6,14.352941176470587,48.0,10.716666666666667,-3.1999999999999993,-0.9000000000000021,900.0,2,0.0
243,Aaron McKie,1610612755,2003,PHI,31.0,75,28.2,3.5,7.7,1.0,2.3,1.1,1.5,0.6,2.8,3.4,2.6,1.4,1.1,0.3,1.9,9.2,-0.6,0.159,0.55,0.524,0.169,0.062,0.106,89.3,96.3,97.6,2.2,11.744680851063828,9.829787234042554,1.9148936170212767,0.2987012987012987,9.0,12.2,29.7,10.90909090909091,80.0,9.883333333333333,0.1999999999999993,-1.5,961.0,3,0.0
243,Aaron McKie,1610612755,2004,PHI,32.0,68,16.6,0.9,2.1,0.3,0.9,0.1,0.2,0.3,2.2,2.5,1.5,0.5,0.7,0.3,1.7,2.2,0.2,0.068,0.51,0.5,0.135,0.075,0.066,99.06,100.4,99.7,0.5,4.771084337349398,4.554216867469879,0.4337349397590361,0.42857142857142855,9.2,9.0,28.2,11.744680851063828,75.0,6.233333333333333,-6.999999999999999,-11.599999999999998,1024.0,4,0.0
243,Aaron McKie,1610612747,2005,LAL,33.0,14,8.7,0.2,0.9,0.0,0.1,0.1,0.1,0.2,1.2,1.4,0.8,0.1,0.4,0.0,0.5,0.5,-1.4,0.058,0.272,0.25,0.147,0.085,0.068,91.66,92.3,102.6,2.2,2.0689655172413794,3.724137931034483,0.4137931034482759,0.11111111111111112,2.2,9.2,16.6,4.771084337349398,68.0,3.2416666666666667,-1.7000000000000002,-7.900000000000002,1089.0,5,1.0
243,Aaron McKie,1610612747,2006,LAL,34.0,10,13.1,1.1,1.7,0.0,0.0,0.0,0.0,0.1,1.7,1.8,1.3,0.8,0.4,0.0,1.4,2.2,-1.3,0.085,0.647,0.647,0.165,0.072,0.073,93.78,96.5,103.1,,6.045801526717558,4.67175572519084,0.0,0.0,0.5,2.2,8.7,2.0689655172413794,14.0,1.6333333333333335,1.7000000000000002,4.4,1156.0,6,0.0
244,Dee Brown,1610612753,2000,ORL,32.0,7,22.3,2.3,6.3,1.7,4.6,0.6,0.7,0.0,1.6,1.6,1.7,1.0,0.6,0.0,1.4,6.9,-3.9,0.147,0.519,0.5,0.152,0.034,0.072,92.35,91.7,100.7,1.0,11.1390134529148,10.170403587443946,1.1300448430493273,0.7301587301587301,,,,,,6.9,,,1024.0,0,
244,Dee Brown,1610612753,2001,ORL,33.0,7,9.4,0.4,2.9,0.1,1.7,0.0,0.0,0.0,1.3,1.3,0.3,0.6,0.4,0.1,0.6,1.0,-0.4,0.16,0.175,0.175,0.043,0.064,-0.018,102.1,94.2,93.7,,3.8297872340425534,11.106382978723405,0.0,0.5862068965517241,6.9,,22.3,11.1390134529148,7.0,3.6222222222222222,-5.9,-12.9,1089.0,1,0.0
248,George Lynch,1610612755,2000,PHI,30.0,82,32.3,3.3,7.5,0.2,0.7,1.5,2.1,2.4,4.8,7.2,1.7,1.3,1.2,0.4,2.7,8.4,2.1,0.135,0.496,0.457,0.084,0.113,0.089,93.1,99.6,95.6,3.8,9.362229102167184,8.359133126934985,2.340557275541796,0.09333333333333332,,,,,,8.4,,,900.0,0,
248,George Lynch,1610612766,2001,CHH,31.0,45,19.8,1.6,4.4,0.0,0.1,0.6,0.9,1.6,2.6,4.1,1.2,0.9,0.9,0.3,1.7,3.8,-0.3,0.128,0.399,0.371,0.1,0.102,0.067,92.31,95.5,96.3,4.5,6.909090909090908,8.0,1.6363636363636365,0.022727272727272728,8.4,,32.3,9.362229102167184,82.0,5.844444444444445,-4.6000000000000005,-12.499999999999996,961.0,1,1.0
248,George Lynch,1610612740,2002,NOH,32.0,81,18.5,1.8,4.4,0.3,1.0,0.5,0.9,1.7,2.6,4.4,1.3,0.6,0.8,0.2,1.7,4.5,1.6,0.131,0.464,0.448,0.109,0.118,0.089,91.85,100.2,95.5,4.8,8.756756756756758,8.562162162162164,1.7513513513513514,0.22727272727272727,3.8,8.4,19.8,6.909090909090908,45.0,5.241666666666667,0.7000000000000002,-1.3000000000000007,1024.0,2,1.0
248,George Lynch,1610612740,2003,NOH,33.0,78,21.7,1.9,4.8,0.6,1.8,0.4,0.7,1.2,2.8,4.0,1.5,0.8,0.6,0.2,2.0,4.8,-1.7,0.124,0.472,0.455,0.114,0.093,0.068,91.2,97.2,100.0,3.7,7.963133640552995,7.963133640552995,1.161290322580645,0.375,4.5,3.8,18.5,8.756756756756758,81.0,4.45,0.2999999999999998,3.1999999999999993,1089.0,3,0.0
248,George Lynch,1610612740,2004,NOH,34.0,44,21.2,1.5,4.3,0.3,0.8,0.4,0.5,1.3,2.7,4.0,2.0,1.3,0.7,0.3,1.9,3.7,-2.6,0.128,0.412,0.389,0.16,0.099,0.063,88.93,94.3,100.1,,6.283018867924529,7.30188679245283,0.8490566037735849,0.186046511627907,4.8,4.5,21.7,7.963133640552995,78.0,4.266666666666667,-1.0999999999999996,-0.5,1156.0,4,0.0
251,Sean Elliott,1610612759,2000,SAS,33.0,52,23.6,2.8,6.5,1.1,2.5,1.2,1.6,0.3,2.9,3.3,1.6,1.0,0.4,0.5,1.5,7.9,3.2,0.16,0.544,0.515,0.115,0.068,0.096,91.75,99.1,92.4,,12.050847457627118,9.915254237288135,2.440677966101695,0.38461538461538464,,,,,,7.9,,,1089.0,0,
252,Karl Malone,1610612762,2000,UTA,37.0,81,35.7,8.3,16.6,0.0,0.1,6.6,8.3,1.4,6.9,8.3,4.5,3.0,1.1,0.8,2.7,23.2,4.7,0.298,0.572,0.499,0.234,0.127,0.184,92.14,108.6,101.6,22.4,23.394957983193272,16.73949579831933,8.369747899159664,0.006024096385542168,,,,,,23.2,,,1369.0,0,
252,Karl Malone,1610612762,2001,UTA,38.0,80,38.0,7.9,17.5,0.1,0.3,6.4,8.0,1.8,6.8,8.6,4.3,3.3,1.9,0.7,2.9,22.4,0.6,0.285,0.532,0.457,0.216,0.121,0.163,92.49,104.5,103.8,20.6,21.221052631578946,16.57894736842105,7.578947368421052,0.017142857142857144,23.2,,35.7,23.394957983193272,81.0,22.755555555555556,-0.8000000000000007,2.299999999999997,1444.0,1,0.0
252,Karl Malone,1610612762,2002,UTA,39.0,81,36.2,7.3,15.9,0.0,0.2,5.9,7.7,1.4,6.4,7.8,4.7,2.6,1.7,0.4,2.5,20.6,2.1,0.272,0.534,0.463,0.236,0.114,0.164,91.58,106.1,103.0,13.2,20.486187845303867,15.812154696132596,7.657458563535911,0.012578616352201259,22.4,23.2,38.0,21.221052631578946,80.0,21.849999999999998,-1.7999999999999972,-1.7999999999999972,1521.0,2,0.0
252,Karl Malone,1610612747,2003,LAL,40.0,42,32.8,4.6,9.5,0.0,0.0,4.0,5.4,1.5,7.3,8.7,3.9,2.5,1.2,0.5,2.8,13.2,5.1,0.192,0.555,0.483,0.185,0.131,0.14,96.83,105.8,98.2,,14.487804878048781,10.426829268292684,5.926829268292684,0.0,20.6,22.4,36.2,20.486187845303867,81.0,17.966666666666665,-7.400000000000002,-3.4000000000000057,1600.0,3,1.0
255,Grant Hill,1610612753,2000,ORL,28.0,4,33.1,4.8,10.8,0.3,0.3,4.0,6.5,2.0,4.3,6.3,6.3,2.8,1.3,0.5,2.3,13.8,-7.3,0.217,0.505,0.453,0.329,0.09,0.147,96.76,91.7,100.7,16.8,15.009063444108762,11.746223564954683,7.069486404833837,0.027777777777777776,,,,,,13.8,,,784.0,0,
255,Grant Hill,1610612753,2001,ORL,29.0,14,36.7,5.9,13.9,0.0,0.1,4.9,5.7,2.1,6.9,8.9,4.6,2.6,0.6,0.3,2.9,16.8,0.6,0.223,0.51,0.426,0.206,0.114,0.129,95.38,105.4,104.6,14.5,16.479564032697546,13.634877384196185,5.591280653950953,0.007194244604316547,13.8,,33.1,15.009063444108762,4.0,15.466666666666665,3.0,3.6000000000000014,841.0,1,0.0
255,Grant Hill,1610612753,2002,ORL,30.0,29,29.0,5.2,10.6,0.0,0.1,4.1,5.0,1.4,5.7,7.1,4.2,2.9,1.0,0.4,1.6,14.5,2.0,0.241,0.568,0.493,0.241,0.125,0.158,95.88,107.0,103.8,,18.0,13.158620689655173,6.206896551724139,0.009433962264150945,16.8,13.8,36.7,16.479564032697546,14.0,15.091666666666667,-2.3000000000000007,-7.700000000000003,900.0,2,0.0
255,Grant Hill,1610612753,2004,ORL,32.0,67,35.0,7.7,15.1,0.0,0.2,4.2,5.1,1.1,3.6,4.7,3.3,2.4,1.4,0.4,2.1,19.7,-0.2,0.242,0.565,0.511,0.165,0.068,0.138,97.0,103.7,104.0,15.1,20.262857142857143,15.531428571428572,5.2457142857142856,0.013245033112582783,,14.5,,,,17.75,,,1024.0,3,
255,Grant Hill,1610612753,2005,ORL,33.0,21,29.2,5.7,11.6,0.1,0.4,3.7,4.9,0.7,3.1,3.8,2.3,1.7,1.1,0.3,2.4,15.1,-2.1,0.243,0.552,0.494,0.142,0.073,0.126,91.7,103.8,107.8,14.4,18.61643835616438,14.301369863013697,6.0410958904109595,0.034482758620689655,19.7,,35.0,20.262857142857143,67.0,17.144444444444446,-4.6,-5.800000000000001,1089.0,4,0.0
255,Grant Hill,1610612753,2006,ORL,34.0,65,30.9,5.3,10.2,0.0,0.2,3.8,5.0,0.8,2.8,3.6,2.1,2.2,0.9,0.4,2.2,14.4,-1.0,0.213,0.582,0.52,0.125,0.064,0.116,91.39,101.8,103.1,13.1,16.776699029126213,11.883495145631068,5.825242718446603,0.019607843137254905,15.1,19.7,29.2,18.61643835616438,21.0,15.958333333333334,-0.6999999999999993,1.6999999999999993,1156.0,5,0.0
255,Grant Hill,1610612756,2007,PHX,35.0,70,31.7,5.1,10.2,0.5,1.5,2.4,2.8,1.1,4.0,5.0,2.9,1.4,0.9,0.8,2.2,13.1,4.5,0.176,0.576,0.526,0.13,0.08,0.108,99.38,110.1,102.9,12.0,14.876971608832807,11.58359621451104,3.1798107255520502,0.14705882352941177,14.4,15.1,30.9,16.776699029126213,65.0,14.033333333333331,-1.3000000000000007,0.8000000000000007,1225.0,6,1.0
255,Grant Hill,1610612756,2008,PHX,36.0,82,29.8,4.8,9.1,0.3,0.9,2.2,2.7,0.8,4.2,4.9,2.3,1.5,1.1,0.7,2.2,12.0,2.2,0.173,0.584,0.54,0.107,0.087,0.102,98.06,113.1,109.2,11.3,14.496644295302012,10.993288590604028,3.2617449664429534,0.09890109890109891,13.1,14.4,31.7,14.876971608832807,70.0,12.966666666666669,-1.0999999999999996,-1.8999999999999986,1296.0,7,0.0
255,Grant Hill,1610612756,2009,PHX,37.0,81,30.0,4.1,8.7,0.4,1.0,2.5,3.1,0.9,4.6,5.5,2.4,1.3,0.7,0.4,2.0,11.3,2.1,0.165,0.561,0.503,0.111,0.092,0.098,97.39,112.0,108.7,13.2,13.560000000000002,10.44,3.7199999999999998,0.1149425287356322,12.0,13.1,29.8,14.496644295302012,82.0,11.983333333333334,-0.6999999999999993,0.1999999999999993,1369.0,8,0.0
255,Grant Hill,1610612756,2010,PHX,38.0,80,30.1,5.0,10.3,0.6,1.4,2.7,3.2,1.0,3.3,4.2,2.5,1.7,0.8,0.4,2.3,13.2,0.6,0.199,0.563,0.511,0.126,0.072,0.092,96.54,109.5,108.5,10.2,15.787375415282389,12.318936877076412,3.8272425249169437,0.13592233009708737,11.3,12.0,30.0,13.560000000000002,81.0,12.266666666666666,1.8999999999999986,0.10000000000000142,1444.0,9,0.0
255,Grant Hill,1610612756,2011,PHX,39.0,49,28.1,4.1,9.2,0.3,1.1,1.7,2.2,0.6,2.9,3.5,2.2,1.3,0.8,0.6,1.8,10.2,2.2,0.185,0.5,0.461,0.116,0.063,0.078,94.63,106.9,102.6,3.2,13.067615658362987,11.7864768683274,2.8185053380782916,0.11956521739130437,13.2,11.3,30.1,15.787375415282389,80.0,11.475,-3.0,-2.0,1521.0,10,0.0
255,Grant Hill,1610612746,2012,LAC,40.0,29,15.1,1.3,3.4,0.1,0.4,0.5,0.8,0.2,1.5,1.7,0.9,0.9,0.4,0.2,1.3,3.2,0.0,0.138,0.428,0.403,0.09,0.055,0.033,91.4,101.0,101.2,,7.629139072847683,8.105960264900663,1.9072847682119207,0.11764705882352942,10.2,13.2,28.1,13.067615658362987,49.0,8.033333333333333,-6.999999999999999,-13.000000000000002,1600.0,11,1.0
258,Brian Grant,1610612748,2000,MIA,29.0,82,33.8,5.9,12.3,0.0,0.0,3.4,4.3,2.6,6.1,8.8,1.2,2.1,0.7,0.9,3.6,15.2,1.8,0.232,0.536,0.479,0.072,0.138,0.128,88.6,100.0,96.6,9.3,16.189349112426036,13.100591715976332,4.5798816568047345,0.0,,,,,,15.2,,,841.0,0,
258,Brian Grant,1610612748,2001,MIA,30.0,72,31.3,4.0,8.5,0.0,0.0,1.4,1.7,2.3,5.7,8.0,1.9,1.7,0.7,0.4,3.3,9.3,-1.0,0.166,0.508,0.469,0.103,0.136,0.103,88.61,98.0,99.0,10.3,10.696485623003197,9.776357827476037,1.9552715654952075,0.0,15.2,,33.8,16.189349112426036,82.0,11.922222222222222,-5.899999999999999,-2.4999999999999964,900.0,1,0.0
258,Brian Grant,1610612748,2002,MIA,31.0,82,32.2,4.2,8.2,0.0,0.0,1.9,2.5,2.9,7.3,10.2,1.3,1.6,0.8,0.6,3.7,10.3,-3.7,0.158,0.552,0.509,0.07,0.166,0.125,89.88,96.1,101.9,8.7,11.51552795031056,9.167701863354036,2.795031055900621,0.0,9.3,15.2,31.3,10.696485623003197,72.0,11.191666666666668,1.0,0.9000000000000021,961.0,2,0.0
258,Brian Grant,1610612748,2003,MIA,32.0,76,30.3,3.8,8.1,0.0,0.0,1.1,1.4,2.3,4.6,6.9,0.9,1.1,0.7,0.5,3.3,8.7,0.4,0.15,0.502,0.471,0.051,0.118,0.082,90.08,100.8,99.7,3.8,10.336633663366335,9.623762376237622,1.6633663366336633,0.0,10.3,9.3,32.2,11.51552795031056,82.0,9.383333333333335,-1.6000000000000014,-1.9000000000000021,1024.0,3,0.0
258,Brian Grant,1610612747,2004,LAL,33.0,69,16.6,1.5,3.0,0.0,0.0,0.8,1.1,1.5,2.3,3.7,0.5,0.6,0.3,0.3,2.5,3.8,-2.1,0.113,0.539,0.493,0.048,0.111,0.051,93.8,102.7,107.4,2.9,8.240963855421686,6.506024096385541,2.385542168674699,0.0,8.7,10.3,30.3,10.336633663366335,76.0,7.058333333333334,-4.8999999999999995,-13.7,1089.0,4,1.0
258,Brian Grant,1610612756,2005,PHX,34.0,21,11.8,1.3,3.1,0.0,0.0,0.3,0.4,0.5,2.2,2.7,0.3,0.3,0.2,0.1,2.1,2.9,-0.7,0.134,0.445,0.415,0.039,0.112,0.038,96.11,106.5,108.8,,8.847457627118644,9.457627118644066,1.2203389830508475,0.0,3.8,8.7,16.6,8.240963855421686,69.0,4.6499999999999995,-0.8999999999999999,-4.800000000000001,1156.0,5,1.0
270,Horace Grant,1610612747,2000,LAL,35.0,77,31.0,3.4,7.4,0.0,0.0,1.7,2.2,2.9,4.2,7.1,1.6,0.6,0.7,0.8,2.4,8.5,4.0,0.129,0.511,0.462,0.073,0.113,0.093,93.0,108.7,101.9,8.0,9.870967741935484,8.593548387096774,2.554838709677419,0.0,,,,,,8.5,,,1225.0,0,
270,Horace Grant,1610612753,2001,ORL,36.0,76,29.1,3.5,6.8,0.0,0.0,1.1,1.5,2.1,4.2,6.3,1.4,0.7,0.8,0.6,1.6,8.0,3.0,0.124,0.539,0.513,0.069,0.109,0.095,93.93,107.4,102.3,5.2,9.896907216494844,8.412371134020617,1.8556701030927834,0.0,8.5,,31.0,9.870967741935484,77.0,8.222222222222221,-0.5,-1.8999999999999986,1296.0,1,1.0
270,Horace Grant,1610612753,2002,ORL,37.0,5,17.0,2.6,5.0,0.0,0.0,0.0,0.0,0.4,1.2,1.6,1.4,0.2,0.6,0.0,1.0,5.2,-2.8,0.141,0.52,0.52,0.132,0.051,0.087,93.96,92.7,99.4,4.1,11.011764705882353,10.588235294117647,0.0,0.0,8.0,8.5,29.1,9.896907216494844,76.0,6.958333333333333,-2.8,-12.100000000000001,1369.0,2,0.0
270,Horace Grant,1610612747,2003,LAL,38.0,55,20.2,1.7,4.1,0.0,0.0,0.7,1.0,1.4,2.8,4.2,1.3,0.5,0.4,0.4,1.3,4.1,0.1,0.113,0.45,0.411,0.098,0.108,0.083,92.33,101.8,101.5,,7.306930693069306,7.306930693069306,1.7821782178217822,0.0,5.2,8.0,17.0,11.011764705882353,5.0,5.441666666666666,-1.1000000000000005,3.1999999999999993,1444.0,3,1.0
271,Johnny Newman,1610612751,2000,NJN,37.0,82,25.0,3.5,8.5,0.7,2.1,3.1,3.6,0.4,1.7,2.1,1.4,1.3,0.8,0.1,2.8,10.9,-3.9,0.203,0.542,0.461,0.105,0.044,0.077,93.84,96.2,104.2,4.2,15.696,12.24,5.184000000000001,0.24705882352941178,,,,,,10.9,,,1369.0,0,
271,Johnny Newman,1610612742,2001,DAL,38.0,47,15.4,1.4,3.1,0.5,1.2,0.9,1.2,0.2,0.9,1.0,0.3,0.4,0.6,0.1,1.9,4.2,-0.1,0.119,0.571,0.527,0.028,0.033,0.033,98.43,103.0,102.3,,9.818181818181817,7.246753246753247,2.8051948051948052,0.3870967741935484,10.9,,25.0,15.696,82.0,7.177777777777777,-6.7,-9.6,1444.0,1,1.0
275,Allan Houston,1610612752,2000,NYK,30.0,78,36.6,6.9,15.5,1.2,3.2,3.6,3.9,0.3,3.4,3.6,2.2,2.1,0.7,0.1,2.4,18.7,1.5,0.249,0.543,0.488,0.119,0.052,0.117,88.61,99.2,97.0,20.4,18.393442622950822,15.245901639344261,3.8360655737704916,0.2064516129032258,,,,,,18.7,,,900.0,0,
275,Allan Houston,1610612752,2001,NYK,31.0,77,37.9,7.4,16.9,1.8,4.5,3.8,4.4,0.5,2.8,3.3,2.5,2.2,0.7,0.1,2.4,20.4,-4.5,0.252,0.54,0.489,0.123,0.045,0.095,92.12,100.9,106.8,22.5,19.37730870712401,16.052770448548813,4.179419525065963,0.26627218934911245,18.7,,36.6,18.393442622950822,78.0,19.644444444444446,1.6999999999999993,1.2999999999999972,961.0,1,0.0
275,Allan Houston,1610612752,2002,NYK,32.0,82,37.9,8.0,17.9,2.2,5.5,4.4,4.8,0.3,2.5,2.8,2.7,2.2,0.7,0.1,2.3,22.5,-0.4,0.262,0.563,0.506,0.129,0.038,0.11,93.15,103.8,104.3,18.5,21.37203166226913,17.00263852242744,4.559366754617415,0.30726256983240224,20.4,18.7,37.9,19.37730870712401,77.0,20.849999999999998,2.1000000000000014,0.0,1024.0,2,0.0
275,Allan Houston,1610612752,2003,NYK,33.0,50,35.9,6.8,15.6,1.7,4.0,3.1,3.4,0.4,2.0,2.4,2.0,2.0,0.8,0.0,2.1,18.5,-0.6,0.244,0.539,0.491,0.101,0.035,0.09,92.39,100.1,100.7,11.9,18.551532033426184,15.643454038997215,3.4094707520891365,0.25641025641025644,22.5,20.4,37.9,21.37203166226913,82.0,20.308333333333334,-4.0,-2.0,1089.0,3,0.0
275,Allan Houston,1610612752,2004,NYK,34.0,20,26.7,4.3,10.3,1.6,4.0,1.8,2.2,0.2,1.0,1.2,2.1,1.1,0.4,0.1,2.0,11.9,1.2,0.207,0.529,0.49,0.127,0.023,0.071,92.05,105.6,104.2,,16.04494382022472,13.887640449438205,2.966292134831461,0.3883495145631068,18.5,22.5,35.9,18.551532033426184,50.0,16.75,-6.6,-9.2,1156.0,4,0.0
278,Stacey Augmon,1610612757,2000,POR,32.0,66,17.9,1.9,4.0,0.0,0.1,0.9,1.3,0.9,1.5,2.4,1.5,0.7,0.7,0.3,1.6,4.7,0.3,0.136,0.511,0.477,0.131,0.069,0.075,92.87,98.5,96.7,4.7,9.45251396648045,8.044692737430168,2.6145251396648046,0.025,,,,,,4.7,,,1024.0,0,
278,Stacey Augmon,1610612766,2001,CHH,33.0,77,17.1,1.8,4.3,0.0,0.0,1.0,1.3,0.8,2.2,2.9,1.3,0.7,0.7,0.2,1.5,4.7,1.4,0.146,0.481,0.429,0.128,0.085,0.089,91.79,101.1,96.8,3.0,9.894736842105262,9.052631578947368,2.7368421052631575,0.0,4.7,,17.9,9.45251396648045,66.0,4.699999999999999,0.0,-0.7999999999999972,1089.0,1,1.0
278,Stacey Augmon,1610612740,2002,NOH,34.0,70,12.3,1.1,2.7,0.0,0.1,0.8,1.0,0.4,1.3,1.7,1.0,0.6,0.4,0.1,1.1,3.0,1.3,0.138,0.474,0.411,0.125,0.07,0.069,93.04,99.3,93.1,5.8,8.78048780487805,7.902439024390244,2.926829268292683,0.037037037037037035,4.7,4.7,17.1,9.894736842105262,77.0,3.9916666666666667,-1.7000000000000002,-4.800000000000001,1156.0,2,1.0
278,Stacey Augmon,1610612740,2003,NOH,35.0,69,20.6,2.1,5.0,0.0,0.1,1.6,2.0,0.8,1.8,2.5,1.2,1.1,0.8,0.2,1.7,5.8,-1.0,0.155,0.486,0.414,0.106,0.063,0.066,91.93,96.7,98.5,3.5,10.135922330097086,8.737864077669903,3.495145631067961,0.02,3.0,4.7,12.3,8.78048780487805,70.0,4.591666666666667,2.8,8.3,1225.0,3,0.0
278,Stacey Augmon,1610612753,2004,ORL,36.0,55,11.9,1.2,3.0,0.0,0.0,1.0,1.4,0.8,1.0,1.8,0.7,0.6,0.4,0.1,1.5,3.5,-1.6,0.15,0.48,0.407,0.084,0.072,0.048,97.91,101.0,105.9,2.0,10.588235294117647,9.07563025210084,4.235294117647058,0.0,5.8,3.0,20.6,10.135922330097086,69.0,4.141666666666667,-2.3,-8.700000000000001,1296.0,4,1.0
278,Stacey Augmon,1610612753,2005,ORL,37.0,36,10.7,0.7,2.0,0.0,0.0,0.6,0.8,0.5,1.0,1.5,0.6,0.3,0.3,0.2,1.1,2.0,1.1,0.118,0.412,0.342,0.092,0.073,0.048,90.08,100.3,94.6,,6.728971962616823,6.728971962616823,2.6915887850467293,0.0,3.5,5.8,11.9,10.588235294117647,55.0,3.4499999999999997,-1.5,-1.200000000000001,1369.0,5,0.0
280,Felton Spencer,1610612752,2000,NYK,33.0,18,6.2,0.7,1.1,0.0,0.0,0.8,1.4,0.9,1.1,1.9,0.1,0.6,0.1,0.1,1.3,2.2,0.7,0.171,0.629,0.6,0.031,0.156,0.063,89.77,98.6,92.9,0.9,12.774193548387098,6.387096774193549,8.129032258064514,0.0,,,,,,2.2,,,1089.0,0,
280,Felton Spencer,1610612752,2001,NYK,34.0,32,7.8,0.2,0.8,0.0,0.0,0.5,1.0,0.5,1.1,1.6,0.1,0.4,0.2,0.3,2.3,0.9,-0.5,0.099,0.358,0.231,0.019,0.1,-0.055,93.61,93.8,95.7,,4.153846153846154,3.6923076923076925,4.615384615384616,0.0,2.2,,6.2,12.774193548387098,18.0,1.4777777777777779,-1.3000000000000003,1.5999999999999996,1156.0,1,0.0
281,Scott Williams,1610612749,2000,MIL,33.0,66,19.2,2.6,5.5,0.0,0.1,0.9,1.1,1.5,4.0,5.5,0.5,0.6,0.7,0.5,2.7,6.1,4.7,0.151,0.514,0.475,0.04,0.146,0.094,95.09,109.3,96.4,4.9,11.4375,10.312500000000002,2.0625,0.018181818181818184,,,,,,6.1,,,1089.0,0,
281,Scott Williams,1610612743,2001,DEN,34.0,41,17.9,2.1,5.3,0.0,0.0,0.7,1.0,2.0,3.1,5.1,0.3,0.9,0.4,0.8,2.4,4.9,-4.1,0.164,0.43,0.396,0.029,0.137,0.059,91.59,95.3,105.7,4.0,9.854748603351958,10.659217877094973,2.011173184357542,0.0,6.1,,19.2,11.4375,66.0,5.433333333333334,-1.1999999999999993,-1.3000000000000007,1156.0,1,1.0
281,Scott Williams,1610612756,2002,PHX,35.0,69,12.7,1.7,4.2,0.0,0.0,0.5,0.6,1.0,1.8,2.8,0.3,0.5,0.4,0.3,2.3,4.0,-1.4,0.175,0.44,0.411,0.041,0.111,0.043,93.8,98.1,101.7,4.6,11.338582677165354,11.905511811023622,1.7007874015748032,0.0,4.9,6.1,17.9,9.854748603351958,41.0,4.825,-0.9000000000000004,-5.199999999999999,1225.0,2,1.0
281,Scott Williams,1610612742,2003,DAL,36.0,43,12.4,2.1,4.3,0.0,0.1,0.4,0.6,0.9,2.2,3.1,0.4,0.4,0.5,0.4,2.2,4.6,1.0,0.177,0.5,0.489,0.047,0.127,0.071,95.73,105.2,100.0,1.7,13.354838709677418,12.483870967741934,1.7419354838709677,0.023255813953488375,4.0,4.9,12.7,11.338582677165354,69.0,4.4750000000000005,0.5999999999999996,-0.29999999999999893,1296.0,3,1.0
281,Scott Williams,1610612739,2004,CLE,37.0,19,8.0,0.6,2.2,0.0,0.1,0.5,0.6,0.8,0.8,1.6,0.4,0.3,0.2,0.3,1.6,1.7,-1.6,0.149,0.36,0.293,0.084,0.107,0.011,93.35,94.6,104.1,,7.6499999999999995,9.9,2.6999999999999997,0.045454545454545456,4.6,4.0,12.4,13.354838709677418,43.0,3.2416666666666667,-2.8999999999999995,-4.4,1369.0,4,1.0
283,Lindsey Hunter,1610612749,2000,MIL,30.0,82,24.4,3.6,9.5,1.9,5.0,0.9,1.2,0.4,1.7,2.1,2.7,0.8,1.2,0.1,2.1,10.1,2.4,0.199,0.5,0.478,0.19,0.043,0.091,93.87,104.2,99.2,5.8,14.901639344262296,14.016393442622952,1.7704918032786885,0.5263157894736842,,,,,,10.1,,,900.0,0,
283,Lindsey Hunter,1610612747,2001,LAL,31.0,82,19.7,2.3,6.0,1.0,2.5,0.2,0.5,0.2,1.3,1.5,1.6,0.7,0.8,0.2,1.5,5.8,1.7,0.155,0.466,0.462,0.119,0.036,0.058,93.72,102.0,98.2,9.7,10.598984771573605,10.964467005076143,0.9137055837563451,0.4166666666666667,10.1,,24.4,14.901639344262296,82.0,7.711111111111112,-4.3,-4.699999999999999,961.0,1,1.0
283,Lindsey Hunter,1610612761,2002,TOR,32.0,29,23.2,3.7,10.4,1.2,3.7,1.2,1.6,0.5,1.5,2.0,2.4,2.0,1.2,0.2,1.7,9.7,-5.0,0.253,0.434,0.407,0.217,0.044,0.068,91.76,91.2,102.8,3.5,15.051724137931034,16.137931034482758,2.4827586206896552,0.3557692307692308,5.8,10.1,19.7,10.598984771573605,82.0,8.5,3.8999999999999995,3.5,1024.0,2,1.0
283,Lindsey Hunter,1610612765,2003,DET,33.0,33,19.8,1.5,4.3,0.4,1.5,0.2,0.2,0.4,1.6,2.0,2.6,1.0,1.2,0.2,1.4,3.5,3.5,0.125,0.399,0.392,0.216,0.052,0.078,92.91,94.6,84.9,3.8,6.363636363636363,7.8181818181818175,0.36363636363636365,0.3488372093023256,9.7,5.8,23.2,15.051724137931034,29.0,6.141666666666666,-6.199999999999999,-3.3999999999999986,1089.0,3,1.0
283,Lindsey Hunter,1610612765,2004,DET,34.0,76,14.9,1.4,4.0,0.3,1.1,0.6,0.8,0.5,1.1,1.6,1.7,0.9,0.9,0.2,1.6,3.8,-0.2,0.156,0.435,0.396,0.194,0.056,0.064,92.16,97.6,96.6,2.9,9.181208053691273,9.664429530201343,1.9328859060402683,0.275,3.5,9.7,19.8,6.363636363636363,33.0,5.175,0.2999999999999998,-4.9,1156.0,4,0.0
283,Lindsey Hunter,1610612765,2005,DET,35.0,30,11.8,1.2,3.3,0.4,1.4,0.1,0.1,0.3,1.0,1.3,2.1,0.7,0.6,0.0,1.5,2.9,0.8,0.157,0.427,0.425,0.283,0.057,0.076,92.67,96.2,91.0,4.9,8.847457627118644,10.067796610169491,0.3050847457627119,0.42424242424242425,3.8,3.5,14.9,9.181208053691273,76.0,3.35,-0.8999999999999999,-3.0999999999999996,1225.0,5,0.0
283,Lindsey Hunter,1610612765,2006,DET,36.0,52,14.3,1.8,4.7,0.7,2.3,0.6,0.6,0.2,0.7,0.9,1.8,0.7,0.7,0.1,1.1,4.9,-1.4,0.179,0.495,0.463,0.225,0.033,0.083,92.12,97.7,102.4,2.4,12.335664335664335,11.832167832167832,1.5104895104895104,0.4893617021276595,2.9,3.8,11.8,8.847457627118644,30.0,3.9583333333333335,2.0000000000000004,2.5,1296.0,6,0.0
283,Lindsey Hunter,1610612765,2007,DET,37.0,24,9.0,0.9,2.7,0.3,1.1,0.3,0.4,0.2,0.4,0.5,1.4,0.5,0.5,0.1,1.3,2.4,0.7,0.176,0.427,0.398,0.237,0.032,0.048,87.41,102.6,97.2,2.6,9.6,10.8,1.6,0.40740740740740744,4.9,2.9,14.3,12.335664335664335,52.0,3.358333333333333,-2.5000000000000004,-5.300000000000001,1369.0,7,0.0
283,Lindsey Hunter,1610612741,2008,CHI,38.0,28,9.5,1.0,2.9,0.6,1.7,0.1,0.2,0.1,0.4,0.4,1.3,0.7,0.7,0.0,1.0,2.6,-1.8,0.171,0.433,0.427,0.245,0.023,0.05,93.28,95.7,104.0,1.0,9.852631578947369,10.989473684210527,0.7578947368421053,0.5862068965517241,2.4,4.9,9.0,9.6,24.0,3.108333333333334,0.20000000000000018,0.5,1444.0,8,1.0
283,Lindsey Hunter,1610612741,2009,CHI,39.0,13,9.4,0.4,2.3,0.1,1.0,0.2,0.2,0.1,1.0,1.1,0.7,0.3,0.1,0.0,0.9,1.0,-0.9,0.131,0.21,0.183,0.105,0.056,-0.012,90.63,103.9,110.0,,3.8297872340425534,8.808510638297872,0.7659574468085106,0.4347826086956522,2.6,2.4,9.5,9.852631578947369,28.0,1.8833333333333335,-1.6,-0.09999999999999964,1521.0,9,0.0
292,Anthony Miller,1610612755,2000,PHI,29.0,4,2.9,0.3,0.5,0.0,0.0,0.0,0.0,0.0,0.5,0.5,0.0,0.3,0.0,0.0,0.3,0.5,-1.8,0.12,0.5,0.5,0.0,0.0,0.031,89.87,72.7,109.5,,6.206896551724139,6.206896551724139,0.0,0.0,,,,,,0.5,,,841.0,0,
292,Anthony Miller,1610612737,2004,ATL,33.0,2,4.9,1.0,1.5,0.0,0.0,0.0,0.0,0.0,0.5,0.5,0.5,0.5,0.5,0.0,1.0,2.0,1.0,0.133,0.667,0.667,0.25,0.0,0.14,133.61,96.2,82.1,,14.693877551020407,11.020408163265305,0.0,0.0,,,,,,2.0,,,1089.0,1,
296,Rick Fox,1610612747,2000,LAL,31.0,82,28.0,3.5,7.9,1.4,3.7,1.2,1.5,1.0,3.0,4.0,3.2,1.7,0.9,0.4,2.7,9.6,3.5,0.16,0.562,0.536,0.168,0.07,0.088,94.12,107.9,101.2,7.9,12.342857142857143,10.157142857142857,1.9285714285714284,0.46835443037974683,,,,,,9.6,,,961.0,0,
296,Rick Fox,1610612747,2001,LAL,32.0,82,27.9,3.1,7.4,0.8,2.5,0.9,1.0,1.1,3.6,4.7,3.5,1.6,0.8,0.3,3.0,7.9,3.1,0.15,0.502,0.475,0.174,0.084,0.077,94.54,108.6,102.5,9.0,10.193548387096774,9.548387096774194,1.2903225806451615,0.33783783783783783,9.6,,28.0,12.342857142857143,82.0,8.655555555555557,-1.6999999999999993,-0.10000000000000142,1024.0,1,0.0
296,Rick Fox,1610612747,2002,LAL,33.0,76,28.7,3.4,8.2,1.4,3.7,0.7,0.9,0.8,3.4,4.3,3.3,1.6,0.9,0.2,2.8,9.0,1.7,0.155,0.523,0.506,0.171,0.073,0.081,94.53,106.4,103.1,4.8,11.289198606271778,10.285714285714285,1.1289198606271778,0.451219512195122,7.9,9.6,27.9,10.193548387096774,82.0,8.783333333333333,1.0999999999999996,0.8000000000000007,1089.0,2,0.0
296,Rick Fox,1610612747,2003,LAL,34.0,38,22.3,1.9,4.9,0.4,1.6,0.6,0.8,0.8,1.9,2.7,2.6,1.3,0.8,0.1,2.6,4.8,1.9,0.131,0.459,0.433,0.161,0.061,0.046,93.96,105.1,100.9,,7.748878923766815,7.910313901345291,1.2914798206278026,0.32653061224489793,9.0,7.9,28.7,11.289198606271778,76.0,6.9750000000000005,-4.2,-6.399999999999999,1156.0,3,0.0
297,Alonzo Mourning,1610612748,2000,MIA,31.0,13,23.5,5.6,10.8,0.0,0.1,2.4,4.2,2.7,5.1,7.8,0.9,2.2,0.3,2.4,1.8,13.6,2.2,0.292,0.536,0.518,0.079,0.166,0.175,90.28,100.3,95.7,15.7,20.834042553191487,16.54468085106383,6.43404255319149,0.009259259259259259,,,,,,13.6,,,961.0,0,
297,Alonzo Mourning,1610612748,2001,MIA,32.0,75,32.7,6.0,11.5,0.0,0.0,3.8,5.7,2.4,6.0,8.4,1.2,2.4,0.4,2.5,3.4,15.7,0.7,0.24,0.558,0.517,0.067,0.134,0.132,89.29,98.5,96.5,,17.284403669724767,12.660550458715596,6.275229357798165,0.0,13.6,,23.5,20.834042553191487,13.0,14.766666666666667,2.0999999999999996,9.200000000000003,1024.0,1,0.0
297,Alonzo Mourning,1610612751,2003,NJN,34.0,12,18.0,2.8,5.9,0.0,0.0,2.5,2.8,0.7,1.6,2.3,0.7,0.8,0.2,0.5,2.7,8.0,-1.9,0.201,0.558,0.465,0.073,0.062,0.088,92.27,90.8,96.4,7.6,16.0,11.8,5.6,0.0,,15.7,,,,10.8875,,,1156.0,2,
297,Alonzo Mourning,1610612748,2004,MIA,35.0,37,19.0,2.7,5.7,0.0,0.0,2.2,3.8,1.4,3.9,5.4,0.5,1.5,0.2,2.0,2.2,7.6,-1.2,0.22,0.515,0.472,0.052,0.144,0.12,89.74,94.0,97.7,7.8,14.399999999999999,10.799999999999999,7.199999999999999,0.0,8.0,,18.0,16.0,12.0,7.777777777777778,-0.40000000000000036,1.0,1225.0,3,1.0
297,Alonzo Mourning,1610612748,2005,MIA,36.0,65,20.0,2.9,4.8,0.0,0.0,2.0,3.4,1.9,3.6,5.5,0.2,1.2,0.2,2.7,2.7,7.8,3.6,0.171,0.615,0.597,0.014,0.137,0.114,94.03,106.5,97.0,8.6,14.040000000000001,8.64,6.119999999999999,0.0,7.6,8.0,19.0,14.399999999999999,37.0,7.783333333333334,0.20000000000000018,1.0,1296.0,4,0.0
297,Alonzo Mourning,1610612748,2006,MIA,37.0,77,20.4,3.1,5.5,0.0,0.0,2.4,4.0,1.6,2.9,4.5,0.2,1.7,0.2,2.3,2.8,8.6,-1.0,0.204,0.59,0.56,0.02,0.115,0.084,92.49,100.9,102.7,6.0,15.176470588235293,9.705882352941178,7.058823529411765,0.0,7.8,7.6,20.0,14.040000000000001,65.0,8.083333333333334,0.7999999999999998,0.3999999999999986,1369.0,5,0.0
297,Alonzo Mourning,1610612748,2007,MIA,38.0,25,15.6,2.1,3.8,0.0,0.0,1.8,3.0,1.4,2.4,3.7,0.3,1.0,0.2,1.7,2.2,6.0,-1.0,0.177,0.58,0.547,0.032,0.117,0.088,97.01,95.6,99.2,,13.846153846153847,8.769230769230768,6.923076923076923,0.0,8.6,7.8,20.4,15.176470588235293,77.0,7.316666666666667,-2.5999999999999996,-4.799999999999999,1444.0,6,0.0
299,Glenn Robinson,1610612749,2000,MIL,28.0,76,37.0,9.0,19.2,0.7,2.4,3.3,4.0,1.6,5.3,6.9,3.3,2.9,1.1,0.8,2.5,22.0,2.8,0.284,0.525,0.487,0.157,0.094,0.13,95.9,107.4,103.4,20.7,21.405405405405407,18.681081081081082,3.891891891891892,0.125,,,,,,22.0,,,784.0,0,
299,Glenn Robinson,1610612749,2001,MIL,29.0,66,35.6,8.1,17.4,0.9,2.7,3.6,4.3,1.1,5.1,6.2,2.5,2.6,1.5,0.6,2.6,20.7,-1.1,0.283,0.537,0.493,0.13,0.09,0.124,93.02,104.9,106.4,20.8,20.932584269662918,17.595505617977526,4.348314606741573,0.15517241379310348,22.0,,37.0,21.405405405405407,76.0,21.27777777777778,-1.3000000000000007,-1.3999999999999986,841.0,1,0.0
299,Glenn Robinson,1610612737,2002,ATL,30.0,69,37.6,7.8,18.1,1.3,3.8,3.9,4.4,1.2,5.4,6.6,3.0,3.6,1.3,0.4,2.7,20.8,-2.6,0.28,0.519,0.468,0.15,0.089,0.113,94.66,101.2,105.2,16.6,19.914893617021278,17.329787234042556,4.212765957446809,0.20994475138121543,20.7,22.0,35.6,20.932584269662918,66.0,21.066666666666666,0.10000000000000142,2.0,900.0,2,1.0
299,Glenn Robinson,1610612755,2003,PHI,31.0,42,32.0,6.5,14.6,0.8,2.4,2.7,3.3,1.1,3.4,4.5,1.4,2.5,1.0,0.2,2.3,16.6,-2.8,0.262,0.518,0.476,0.085,0.073,0.098,91.71,98.0,102.5,10.0,18.675,16.425,3.7125,0.1643835616438356,20.8,20.7,37.6,19.914893617021278,69.0,19.025,-4.199999999999999,-5.600000000000001,961.0,3,1.0
299,Glenn Robinson,1610612759,2004,SAS,32.0,9,17.6,3.8,8.6,0.2,0.7,2.2,2.6,0.4,2.2,2.7,0.9,0.8,0.4,0.3,2.1,10.0,-2.3,0.264,0.517,0.455,0.105,0.073,0.109,92.52,96.1,106.0,,20.454545454545453,17.59090909090909,5.3181818181818175,0.0813953488372093,16.6,20.8,32.0,18.675,42.0,14.9,-6.600000000000001,-14.399999999999999,1024.0,4,1.0
302,Mookie Blaylock,1610612744,2000,GSW,34.0,69,34.1,4.6,11.6,1.1,3.3,0.8,1.1,1.0,2.9,3.9,6.7,1.9,2.4,0.3,1.9,11.0,-4.8,0.172,0.455,0.441,0.32,0.055,0.11,97.03,96.1,103.2,3.4,11.612903225806452,12.24633431085044,1.161290322580645,0.28448275862068967,,,,,,11.0,,,1156.0,0,
302,Mookie Blaylock,1610612744,2001,GSW,35.0,35,17.1,1.4,4.2,0.4,1.2,0.1,0.2,0.2,1.3,1.5,3.3,1.1,0.7,0.1,0.6,3.4,-2.4,0.135,0.398,0.394,0.33,0.043,0.096,92.77,93.1,99.9,,7.157894736842104,8.842105263157894,0.42105263157894735,0.2857142857142857,11.0,,34.1,11.612903225806452,69.0,6.777777777777778,-7.6,-17.0,1225.0,1,0.0
304,John Stockton,1610612762,2000,UTA,39.0,82,29.2,4.0,7.9,0.7,1.6,2.8,3.4,0.7,2.1,2.8,8.7,2.5,1.6,0.3,2.4,11.5,6.9,0.178,0.61,0.551,0.452,0.052,0.161,92.91,110.9,98.1,13.4,14.178082191780822,9.73972602739726,4.191780821917808,0.20253164556962025,,,,,,11.5,,,1521.0,0,
304,John Stockton,1610612762,2001,UTA,40.0,82,31.3,4.9,9.5,0.3,1.0,3.4,3.9,0.7,2.5,3.2,8.2,2.5,1.9,0.3,2.5,13.4,2.0,0.189,0.601,0.534,0.442,0.056,0.166,92.71,105.3,101.7,10.8,15.412140575079873,10.926517571884984,4.485623003194888,0.10526315789473684,11.5,,29.2,14.178082191780822,82.0,12.555555555555555,1.9000000000000004,2.1000000000000014,1600.0,1,0.0
304,John Stockton,1610612762,2002,UTA,41.0,82,27.7,3.8,7.8,0.4,1.0,2.9,3.5,0.6,1.8,2.5,7.7,2.2,1.7,0.2,2.2,10.8,3.0,0.185,0.577,0.505,0.444,0.048,0.154,91.63,106.6,100.9,,14.036101083032493,10.137184115523466,4.548736462093863,0.12820512820512822,13.4,11.5,31.3,15.412140575079873,82.0,11.841666666666667,-2.5999999999999996,-3.6000000000000014,1681.0,2,0.0
317,John Starks,1610612762,2000,UTA,35.0,75,28.3,3.6,9.1,0.9,2.4,1.2,1.5,0.4,1.7,2.1,2.4,1.3,1.0,0.1,2.9,9.3,2.2,0.179,0.476,0.445,0.13,0.04,0.051,91.99,107.3,102.3,4.4,11.830388692579506,11.575971731448762,1.9081272084805654,0.26373626373626374,,,,,,9.3,,,1225.0,0,
317,John Starks,1610612762,2001,UTA,36.0,66,14.1,1.7,4.7,0.4,1.4,0.5,0.6,0.2,0.8,1.0,1.1,0.8,0.5,0.0,1.9,4.4,-0.5,0.179,0.442,0.415,0.132,0.038,0.028,93.05,100.8,102.0,,11.23404255319149,12.000000000000002,1.5319148936170213,0.2978723404255319,9.3,,28.3,11.830388692579506,75.0,6.577777777777778,-4.9,-14.200000000000001,1296.0,1,0.0
323,Greg Foster,1610612747,2000,LAL,32.0,62,7.3,0.9,2.1,0.0,0.1,0.2,0.2,0.5,1.3,1.8,0.5,0.4,0.1,0.2,1.2,2.0,-1.9,0.164,0.449,0.432,0.125,0.123,0.067,91.98,90.4,104.7,1.2,9.863013698630137,10.356164383561644,0.9863013698630138,0.047619047619047616,,,,,,2.0,,,1024.0,0,
323,Greg Foster,1610612749,2001,MIL,33.0,6,4.2,0.3,1.5,0.0,0.7,0.5,0.7,0.0,1.3,1.3,0.2,0.0,0.0,0.0,0.7,1.2,-1.8,0.186,0.325,0.222,0.083,0.0,0.045,107.45,85.5,101.8,4.2,10.285714285714285,12.857142857142858,6.0,0.4666666666666666,2.0,,7.3,9.863013698630137,62.0,1.5555555555555556,-0.8,-3.0999999999999996,1089.0,1,1.0
323,Greg Foster,1610612761,2002,TOR,34.0,29,18.6,1.6,4.2,0.0,0.1,0.9,1.1,1.0,2.5,3.5,0.4,1.0,0.0,0.3,2.8,4.2,-4.1,0.14,0.445,0.389,0.043,0.098,0.023,90.48,91.3,103.6,,8.129032258064516,8.129032258064516,2.129032258064516,0.023809523809523808,1.2,2.0,4.2,10.285714285714285,6.0,2.65,3.0,14.400000000000002,1156.0,2,1.0
324,Anthony Peeler,1610612750,2000,MIN,31.0,75,28.3,4.1,9.8,1.3,3.4,1.0,1.2,0.6,2.0,2.6,2.6,1.4,1.2,0.2,2.2,10.5,1.1,0.183,0.513,0.489,0.138,0.045,0.076,94.85,103.0,100.6,9.0,13.356890459363957,12.46643109540636,1.526501766784452,0.346938775510204,,,,,,10.5,,,961.0,0,
324,Anthony Peeler,1610612750,2001,MIN,32.0,82,25.1,3.5,8.3,1.4,3.5,0.6,0.7,0.5,2.1,2.5,2.2,0.9,0.7,0.1,1.7,9.0,0.2,0.17,0.519,0.502,0.135,0.051,0.081,93.0,105.5,105.5,7.7,12.908366533864541,11.904382470119522,1.0039840637450197,0.4216867469879518,10.5,,28.3,13.356890459363957,75.0,9.666666666666666,-1.5,-3.1999999999999993,1024.0,1,0.0
324,Anthony Peeler,1610612750,2002,MIN,33.0,82,27.4,3.1,7.4,1.1,2.6,0.5,0.6,0.5,2.5,2.9,3.0,1.0,0.9,0.2,2.0,7.7,0.5,0.142,0.499,0.485,0.158,0.054,0.073,94.56,104.4,103.2,5.7,10.116788321167885,9.722627737226277,0.7883211678832117,0.35135135135135137,9.0,10.5,25.1,12.908366533864541,82.0,8.833333333333334,-1.2999999999999998,2.299999999999997,1089.0,2,0.0
324,Anthony Peeler,1610612758,2003,SAC,34.0,75,18.4,2.1,4.6,0.9,1.9,0.7,0.8,0.4,1.6,2.0,1.6,1.0,0.7,0.1,1.4,5.7,1.7,0.143,0.575,0.546,0.139,0.054,0.084,94.39,103.5,98.9,3.8,11.15217391304348,9.0,1.5652173913043481,0.41304347826086957,7.7,9.0,27.4,10.116788321167885,82.0,7.191666666666666,-2.0,-9.0,1156.0,3,1.0
324,Anthony Peeler,1610612764,2004,WAS,35.0,40,13.2,1.4,3.8,0.6,1.6,0.4,0.5,0.4,1.3,1.6,1.4,0.7,0.5,0.1,1.0,3.8,-2.6,0.153,0.484,0.457,0.18,0.06,0.075,95.34,97.7,108.2,,10.363636363636365,10.363636363636365,1.3636363636363638,0.4210526315789474,5.7,7.7,18.4,11.15217391304348,75.0,5.408333333333334,-1.9000000000000004,-5.199999999999999,1225.0,4,1.0
330,Danny Manning,1610612762,2000,UTA,35.0,82,15.9,3.0,6.1,0.1,0.3,1.2,1.7,0.8,1.8,2.6,1.1,1.2,0.6,0.4,2.7,7.4,1.6,0.227,0.537,0.501,0.135,0.088,0.098,92.48,101.0,95.5,4.0,16.754716981132077,13.81132075471698,3.8490566037735845,0.04918032786885246,,,,,,7.4,,,1225.0,0,
330,Danny Manning,1610612742,2001,DAL,36.0,41,13.5,1.7,3.6,0.0,0.2,0.5,0.8,0.6,2.0,2.6,0.7,0.6,0.5,0.5,2.0,4.0,-0.9,0.153,0.505,0.48,0.084,0.095,0.069,95.71,101.7,104.3,2.6,10.666666666666666,9.6,2.1333333333333333,0.05555555555555556,7.4,,15.9,16.754716981132077,82.0,5.511111111111111,-3.4000000000000004,-2.4000000000000004,1296.0,1,1.0
330,Danny Manning,1610612765,2002,DET,37.0,13,6.8,1.0,2.5,0.2,0.6,0.4,0.5,0.5,0.8,1.4,0.5,0.5,0.7,0.2,0.8,2.6,0.4,0.206,0.491,0.453,0.152,0.101,0.105,94.93,95.4,93.6,,13.764705882352942,13.23529411764706,2.6470588235294117,0.24,4.0,7.4,13.5,10.666666666666666,41.0,4.266666666666667,-1.4,-6.7,1369.0,2,1.0
339,Tom Gugliotta,1610612756,2000,PHX,31.0,57,20.4,2.6,6.7,0.1,0.2,1.1,1.4,1.3,3.1,4.5,1.0,0.9,0.8,0.4,1.9,6.4,1.2,0.176,0.437,0.396,0.078,0.109,0.081,95.5,97.5,94.1,6.5,11.294117647058826,11.823529411764708,2.4705882352941178,0.029850746268656716,,,,,,6.4,,,961.0,0,
339,Tom Gugliotta,1610612756,2001,PHX,32.0,44,25.8,2.9,6.8,0.1,0.2,0.6,0.8,1.3,3.7,5.0,1.8,1.4,0.9,0.7,2.6,6.5,-1.0,0.147,0.449,0.427,0.1,0.097,0.067,94.3,98.3,99.8,4.8,9.069767441860465,9.488372093023255,1.1162790697674418,0.029411764705882356,6.4,,20.4,11.294117647058826,57.0,6.455555555555556,0.09999999999999964,5.400000000000002,1024.0,1,0.0
339,Tom Gugliotta,1610612756,2002,PHX,33.0,27,16.5,2.2,4.9,0.0,0.0,0.3,0.3,0.9,2.8,3.7,1.1,1.1,0.5,0.2,1.3,4.8,-2.4,0.168,0.474,0.455,0.114,0.113,0.09,92.66,95.4,102.7,2.9,10.472727272727273,10.690909090909091,0.6545454545454545,0.0,6.5,6.4,25.8,9.069767441860465,44.0,5.766666666666667,-1.7000000000000002,-9.3,1089.0,2,0.0
339,Tom Gugliotta,1610612762,2003,UTA,34.0,55,14.9,1.3,3.7,0.0,0.1,0.4,0.5,1.2,2.2,3.4,1.1,0.7,0.6,0.2,1.5,2.9,-2.4,0.143,0.374,0.347,0.132,0.12,0.069,89.7,93.3,101.5,5.1,7.006711409395973,8.939597315436242,1.2080536912751678,0.02702702702702703,4.8,6.5,16.5,10.472727272727273,27.0,4.433333333333334,-1.9,-1.5999999999999996,1156.0,3,1.0
339,Tom Gugliotta,1610612737,2004,ATL,35.0,47,20.5,2.1,5.1,0.2,0.6,0.7,0.9,1.2,2.9,4.1,1.4,1.2,0.9,0.4,2.2,5.1,-5.0,0.148,0.46,0.427,0.115,0.105,0.068,94.27,96.0,108.0,,8.956097560975609,8.956097560975609,1.5804878048780489,0.11764705882352941,2.9,4.8,14.9,7.006711409395973,55.0,4.291666666666667,2.1999999999999997,5.6,1225.0,4,1.0
344,Dana Barros,1610612765,2000,DET,34.0,60,18.0,3.1,6.9,0.7,1.8,1.1,1.3,0.1,1.5,1.6,1.8,1.0,0.5,0.0,1.1,8.0,-1.1,0.195,0.534,0.498,0.187,0.041,0.111,98.49,95.6,99.1,6.7,16.0,13.8,2.6,0.2608695652173913,,,,,,8.0,,,1156.0,0,
344,Dana Barros,1610612765,2001,DET,35.0,29,20.2,2.6,6.6,0.8,2.4,0.7,0.9,0.0,1.9,2.0,2.7,1.1,0.5,0.1,1.3,6.7,0.2,0.186,0.473,0.448,0.221,0.051,0.08,92.47,99.9,99.6,,11.94059405940594,11.762376237623762,1.603960396039604,0.36363636363636365,8.0,,18.0,16.0,60.0,7.277777777777778,-1.2999999999999998,2.1999999999999993,1225.0,1,0.0
344,Dana Barros,1610612738,2003,BOS,37.0,1,10.9,2.0,3.0,0.0,0.0,2.0,2.0,0.0,0.0,0.0,0.0,0.0,0.0,0.0,2.0,6.0,-17.0,0.148,0.773,0.667,0.0,0.0,0.058,109.91,92.0,160.0,,19.816513761467892,9.908256880733946,6.605504587155963,0.0,,6.7,,,,6.2625,,,1369.0,2,
345,Terry Porter,1610612759,2000,SAS,38.0,80,21.0,2.5,5.5,1.1,2.6,1.2,1.5,0.3,2.2,2.5,3.1,1.3,0.7,0.1,1.1,7.2,4.5,0.162,0.583,0.547,0.248,0.06,0.122,91.67,104.0,92.3,5.5,12.342857142857143,9.428571428571429,2.571428571428571,0.4727272727272727,,,,,,7.2,,,1444.0,0,
345,Terry Porter,1610612759,2001,SAS,39.0,72,17.9,1.9,4.5,0.8,2.0,0.9,1.2,0.2,2.1,2.3,2.8,1.2,0.6,0.2,1.2,5.5,5.1,0.152,0.558,0.516,0.25,0.063,0.114,93.85,107.0,92.6,,11.061452513966481,9.050279329608939,2.4134078212290504,0.4444444444444444,7.2,,21.0,12.342857142857143,80.0,6.2555555555555555,-1.7000000000000002,-3.1000000000000014,1521.0,1,0.0
348,Mitchell Butler,1610612757,2001,POR,31.0,11,8.2,0.9,2.1,0.1,0.3,0.7,1.1,0.5,0.7,1.3,0.5,0.5,0.0,0.1,0.9,2.6,-2.5,0.165,0.513,0.457,0.098,0.081,0.048,95.7,93.2,106.1,,11.414634146341466,9.21951219512195,4.8292682926829285,0.14285714285714285,,,,,,2.6,,,961.0,0,
348,Mitchell Butler,1610612764,2003,WAS,33.0,41,13.5,1.3,3.0,0.3,0.7,0.4,0.6,0.6,1.1,1.7,0.8,0.6,0.5,0.1,1.3,3.3,0.4,0.122,0.498,0.48,0.093,0.062,0.054,96.83,99.6,97.7,,8.799999999999999,8.0,1.6,0.2333333333333333,,2.6,,,,3.0375,,,1089.0,1,
349,Mark Jackson,1610612752,2000,NYK,36.0,83,31.1,2.9,7.0,0.8,2.5,0.9,1.1,0.8,2.9,3.7,8.0,2.1,1.0,0.1,1.7,7.6,0.3,0.14,0.505,0.479,0.396,0.059,0.121,91.38,101.1,100.3,8.4,8.797427652733118,8.102893890675242,1.2733118971061093,0.35714285714285715,,,,,,7.6,,,1296.0,0,
349,Mark Jackson,1610612752,2001,NYK,37.0,82,28.8,3.2,7.2,1.0,2.4,1.1,1.3,0.7,3.1,3.8,7.4,1.8,0.9,0.0,2.0,8.4,-3.5,0.153,0.536,0.506,0.405,0.067,0.121,92.32,101.7,107.9,4.7,10.5,9.0,1.625,0.3333333333333333,7.6,,31.1,8.797427652733118,83.0,8.044444444444444,0.8000000000000007,-2.3000000000000007,1369.0,1,0.0
349,Mark Jackson,1610612762,2002,UTA,38.0,82,17.9,1.8,4.5,0.3,1.2,0.7,1.0,0.4,1.7,2.1,4.6,1.9,0.6,0.0,1.1,4.7,-0.3,0.17,0.473,0.435,0.437,0.063,0.115,92.1,96.3,97.3,2.5,9.45251396648045,9.050279329608939,2.011173184357542,0.26666666666666666,8.4,7.6,28.8,10.5,82.0,6.658333333333334,-3.7,-10.900000000000002,1444.0,2,1.0
349,Mark Jackson,1610612745,2003,HOU,39.0,42,13.8,0.8,2.4,0.2,1.0,0.7,0.9,0.2,1.4,1.7,2.8,1.3,0.4,0.0,1.0,2.5,0.2,0.139,0.44,0.375,0.336,0.066,0.078,91.42,96.5,96.7,,6.521739130434782,6.260869565217391,2.3478260869565215,0.4166666666666667,4.7,8.4,17.9,9.45251396648045,82.0,4.708333333333333,-2.2,-4.099999999999998,1521.0,3,1.0
353,Darrell Armstrong,1610612753,2000,ORL,33.0,75,37.0,5.5,13.4,1.9,5.4,2.9,3.3,1.3,3.3,4.6,7.0,2.7,1.8,0.2,2.1,15.9,2.8,0.203,0.535,0.484,0.299,0.06,0.136,94.46,104.9,100.7,12.4,15.47027027027027,13.037837837837838,3.2108108108108104,0.40298507462686567,,,,,,15.9,,,1089.0,0,
353,Darrell Armstrong,1610612753,2001,ORL,34.0,82,33.3,4.2,10.1,1.7,4.9,2.2,2.5,1.0,2.9,3.9,5.5,2.1,1.9,0.1,2.0,12.4,2.5,0.172,0.553,0.504,0.249,0.058,0.11,95.48,106.7,103.1,9.4,13.405405405405407,10.91891891891892,2.7027027027027026,0.4851485148514852,15.9,,37.0,15.47027027027027,75.0,13.955555555555556,-3.5,-3.700000000000003,1156.0,1,0.0
353,Darrell Armstrong,1610612753,2002,ORL,35.0,82,28.7,3.2,7.8,1.0,2.8,2.0,2.3,1.1,2.5,3.6,3.9,2.0,1.6,0.2,2.0,9.4,0.6,0.162,0.53,0.47,0.219,0.063,0.1,96.1,103.1,102.8,10.6,11.790940766550523,9.78397212543554,2.8850174216027873,0.358974358974359,12.4,15.9,33.3,13.405405405405407,82.0,12.025,-3.0,-4.599999999999998,1225.0,2,0.0
353,Darrell Armstrong,1610612740,2003,NOH,36.0,79,28.4,3.7,9.3,1.7,5.4,1.6,1.8,0.8,2.1,2.9,3.9,2.0,1.7,0.2,1.9,10.6,1.3,0.187,0.525,0.487,0.244,0.05,0.11,92.49,100.6,98.2,4.0,13.43661971830986,11.7887323943662,2.2816901408450705,0.5806451612903226,9.4,12.4,28.7,11.790940766550523,82.0,10.65,1.1999999999999993,-0.3000000000000007,1296.0,3,1.0
353,Darrell Armstrong,1610612742,2004,DAL,37.0,66,15.0,1.3,4.2,0.4,1.7,0.9,1.0,0.5,1.2,1.7,2.7,1.0,0.7,0.1,1.4,4.0,-0.8,0.165,0.43,0.372,0.295,0.058,0.078,94.77,98.6,101.3,2.1,9.6,10.080000000000002,2.4,0.4047619047619047,10.6,9.4,28.4,13.43661971830986,79.0,7.55,-6.6,-13.399999999999999,1369.0,4,1.0
353,Darrell Armstrong,1610612742,2005,DAL,38.0,62,10.0,0.7,2.1,0.2,0.8,0.5,0.7,0.3,1.0,1.3,1.4,0.9,0.4,0.0,1.1,2.1,-0.2,0.143,0.444,0.379,0.216,0.069,0.051,95.64,100.3,101.6,5.6,7.5600000000000005,7.5600000000000005,2.5199999999999996,0.38095238095238093,4.0,10.6,15.0,9.6,66.0,4.858333333333333,-1.9,-5.0,1444.0,5,0.0
353,Darrell Armstrong,1610612754,2006,IND,39.0,81,15.7,1.9,4.7,0.9,2.6,0.9,1.1,0.4,1.2,1.7,2.4,0.9,0.9,0.1,1.3,5.6,-0.7,0.167,0.547,0.509,0.25,0.055,0.112,96.67,99.5,101.9,2.5,12.84076433121019,10.77707006369427,2.5222929936305736,0.5531914893617021,2.1,4.0,10.0,7.5600000000000005,62.0,4.033333333333333,3.4999999999999996,5.699999999999999,1521.0,6,1.0
353,Darrell Armstrong,1610612751,2007,NJN,40.0,50,11.0,0.8,2.2,0.5,1.4,0.4,0.6,0.3,1.0,1.3,1.5,0.8,0.6,0.0,1.1,2.5,-2.3,0.134,0.499,0.468,0.225,0.063,0.065,95.79,93.3,103.4,,8.181818181818182,7.2,1.9636363636363636,0.6363636363636362,5.6,2.1,15.7,12.84076433121019,81.0,3.4333333333333336,-3.0999999999999996,-4.699999999999999,1600.0,7,1.0
358,Anfernee Hardaway,1610612756,2000,PHX,29.0,4,27.6,3.8,9.0,0.5,2.0,1.8,2.8,1.3,3.3,4.5,3.8,0.8,1.5,0.3,1.5,9.8,-1.8,0.171,0.477,0.444,0.224,0.078,0.115,96.83,94.2,98.6,12.0,12.782608695652176,11.73913043478261,3.652173913043478,0.2222222222222222,,,,,,9.8,,,841.0,0,
358,Anfernee Hardaway,1610612756,2001,PHX,30.0,80,30.8,4.9,11.6,0.3,1.0,2.0,2.4,1.2,3.2,4.4,4.1,2.4,1.5,0.4,2.3,12.0,-0.8,0.214,0.472,0.43,0.211,0.071,0.098,93.3,100.7,102.0,10.6,14.025974025974026,13.558441558441556,2.8051948051948052,0.08620689655172414,9.8,,27.6,12.782608695652176,4.0,11.022222222222222,2.1999999999999993,3.1999999999999993,900.0,1,0.0
358,Anfernee Hardaway,1610612756,2002,PHX,31.0,58,30.6,4.4,9.9,0.4,1.3,1.3,1.7,1.1,3.3,4.4,4.1,2.5,1.1,0.4,2.6,10.6,0.4,0.19,0.499,0.469,0.21,0.073,0.095,93.43,100.6,99.6,9.2,12.470588235294118,11.647058823529413,2.0,0.13131313131313133,12.0,9.8,30.8,14.025974025974026,80.0,10.866666666666667,-1.4000000000000004,-0.1999999999999993,961.0,2,0.0
358,Anfernee Hardaway,1610612752,2003,NYK,32.0,76,27.6,3.7,8.9,0.4,1.0,1.5,1.8,0.9,2.9,3.8,2.3,1.4,0.9,0.3,1.9,9.2,-1.0,0.18,0.472,0.433,0.141,0.069,0.083,93.94,98.1,100.3,7.3,12.0,11.608695652173912,2.3478260869565215,0.11235955056179775,10.6,12.0,30.6,12.470588235294118,58.0,10.366666666666667,-1.4000000000000004,-3.0,1024.0,3,1.0
358,Anfernee Hardaway,1610612752,2004,NYK,33.0,37,24.2,3.0,7.0,0.4,1.4,0.9,1.2,0.5,1.9,2.4,2.0,1.4,0.8,0.1,2.1,7.3,-2.3,0.165,0.48,0.452,0.141,0.053,0.058,93.26,100.9,105.8,2.5,10.859504132231404,10.41322314049587,1.7851239669421488,0.19999999999999998,9.2,10.6,27.6,12.0,76.0,8.758333333333333,-1.8999999999999995,-3.400000000000002,1089.0,4,0.0
358,Anfernee Hardaway,1610612752,2005,NYK,34.0,4,17.9,1.0,3.5,0.0,0.3,0.5,0.5,0.0,2.5,2.5,2.0,1.5,0.5,0.0,1.8,2.5,1.8,0.135,0.336,0.286,0.174,0.082,0.038,95.01,97.9,94.3,,5.027932960893855,7.039106145251397,1.005586592178771,0.08571428571428572,7.3,9.2,24.2,10.859504132231404,37.0,5.7749999999999995,-4.8,-6.300000000000001,1156.0,5,0.0
358,Anfernee Hardaway,1610612748,2007,MIA,36.0,16,20.3,1.4,3.8,0.5,1.2,0.5,0.6,0.2,2.0,2.2,2.2,0.8,1.2,0.1,1.5,3.8,-2.0,0.11,0.469,0.433,0.173,0.056,0.075,91.96,95.4,101.1,,6.738916256157635,6.738916256157635,1.064039408866995,0.3157894736842105,,2.5,,,,3.3125,,,1296.0,6,
359,Chucky Brown,1610612739,2000,CLE,33.0,26,13.1,1.5,3.7,0.0,0.1,0.8,1.3,0.3,1.8,2.1,0.4,0.3,0.3,0.3,1.4,3.9,-1.4,0.153,0.464,0.421,0.054,0.082,0.062,94.75,96.1,101.0,1.2,10.717557251908397,10.16793893129771,3.5725190839694663,0.02702702702702703,,,,,,3.9,,,1089.0,0,
359,Chucky Brown,1610612758,2001,SAC,34.0,18,5.1,0.6,1.5,0.0,0.0,0.1,0.1,0.6,1.3,1.8,0.3,0.3,0.1,0.2,0.7,1.2,-1.1,0.14,0.377,0.37,0.094,0.145,0.087,105.15,84.7,95.5,,8.470588235294118,10.588235294117647,0.7058823529411766,0.0,3.9,,13.1,10.717557251908397,26.0,2.4000000000000004,-2.7,-8.0,1156.0,1,1.0
361,Clifford Robinson,1610612756,2000,PHX,34.0,82,33.6,6.1,14.5,1.1,3.0,3.1,4.4,1.3,2.8,4.1,2.9,2.3,1.1,1.0,3.1,16.4,1.6,0.249,0.501,0.46,0.155,0.062,0.091,94.34,98.6,95.6,14.6,17.57142857142857,15.535714285714285,4.714285714285714,0.20689655172413793,,,,,,16.4,,,1156.0,0,
361,Clifford Robinson,1610612765,2001,DET,35.0,80,35.7,5.7,13.4,1.4,3.8,1.8,2.6,1.0,3.9,4.8,2.5,1.9,1.1,1.2,3.0,14.6,1.3,0.213,0.503,0.478,0.125,0.071,0.086,92.17,102.6,100.4,12.2,14.72268907563025,13.512605042016807,2.621848739495798,0.2835820895522388,16.4,,33.6,17.57142857142857,82.0,15.399999999999999,-1.799999999999999,2.1000000000000014,1225.0,1,1.0
361,Clifford Robinson,1610612765,2002,DET,36.0,81,34.9,4.6,11.5,1.1,3.2,2.0,2.9,1.0,2.9,3.9,3.3,2.0,1.1,1.1,3.2,12.2,2.1,0.202,0.477,0.444,0.175,0.06,0.074,88.82,102.7,99.3,11.8,12.58452722063037,11.862464183381089,2.9914040114613183,0.2782608695652174,14.6,16.4,35.7,14.72268907563025,80.0,14.049999999999999,-2.4000000000000004,-0.8000000000000043,1296.0,2,0.0
361,Clifford Robinson,1610612744,2003,GSW,37.0,82,34.7,4.5,11.5,1.4,3.8,1.5,2.1,0.7,3.3,3.9,3.3,2.1,0.8,0.9,2.9,11.8,-1.0,0.192,0.473,0.447,0.16,0.058,0.067,91.59,100.8,102.5,7.5,12.24207492795389,11.930835734870316,2.1786743515850144,0.33043478260869563,12.2,14.6,34.9,12.58452722063037,81.0,12.633333333333333,-0.3999999999999986,-0.19999999999999574,1369.0,3,1.0
361,Clifford Robinson,1610612751,2004,NJN,38.0,71,23.9,2.8,7.4,0.9,2.7,0.9,1.4,0.8,2.2,2.9,1.5,0.9,0.9,0.7,2.5,7.5,-4.2,0.166,0.471,0.45,0.102,0.062,0.056,94.17,99.4,107.3,6.9,11.297071129707115,11.146443514644353,2.1087866108786613,0.36486486486486486,11.8,12.2,34.7,12.24207492795389,82.0,10.108333333333333,-4.300000000000001,-10.800000000000004,1444.0,4,1.0
